# Energy(keV)  dEe/dx(keV/micro_m)  dEn/dx(keV/micro_m)  x(micro_m)
1.100000000000000066e-03 8.958000000000000407e-01 8.982999999999999874e-01 1.000000000000000048e-04
1.199999999999999895e-03 8.958000000000000407e-01 9.383000000000000229e-01 1.000000000000000048e-04
1.300000000000000157e-03 9.324000000000000066e-01 9.764000000000000457e-01 1.000000000000000048e-04
1.399999999999999986e-03 9.676000000000000156e-01 1.012999999999999901e+00 1.000000000000000048e-04
1.500000000000000031e-03 1.002000000000000002e+00 1.046999999999999931e+00 1.000000000000000048e-04
1.600000000000000077e-03 1.034000000000000030e+00 1.080999999999999961e+00 2.000000000000000096e-04
1.699999999999999905e-03 1.066000000000000059e+00 1.112999999999999989e+00 2.000000000000000096e-04
1.800000000000000168e-03 1.096999999999999975e+00 1.143000000000000016e+00 2.000000000000000096e-04
2.000000000000000042e-03 1.157000000000000028e+00 1.201999999999999957e+00 2.000000000000000096e-04
2.250000000000000264e-03 1.227000000000000091e+00 1.268999999999999906e+00 2.000000000000000096e-04
2.499990000000000111e-03 1.292999999999999927e+00 1.332000000000000073e+00 2.000000000000000096e-04
2.749989999999999900e-03 1.356000000000000094e+00 1.391000000000000014e+00 2.000000000000000096e-04
2.999990000000000122e-03 1.415999999999999925e+00 1.445999999999999952e+00 2.000000000000000096e-04
3.249989999999999910e-03 1.473999999999999977e+00 1.497999999999999998e+00 2.000000000000000096e-04
3.499990000000000132e-03 1.530000000000000027e+00 1.546999999999999931e+00 2.000000000000000096e-04
3.749989999999999921e-03 1.584000000000000075e+00 1.594000000000000083e+00 2.000000000000000096e-04
3.999990000000000143e-03 1.635999999999999899e+00 1.639000000000000012e+00 3.000000000000000279e-04
4.499990000000000587e-03 1.735000000000000098e+00 1.721999999999999975e+00 3.000000000000000279e-04
4.999990000000000163e-03 1.828999999999999959e+00 1.798000000000000043e+00 3.000000000000000279e-04
5.499990000000000608e-03 1.917999999999999927e+00 1.868999999999999995e+00 3.000000000000000279e-04
5.999990000000000184e-03 2.003000000000000114e+00 1.935000000000000053e+00 3.000000000000000279e-04
6.499990000000000628e-03 2.084999999999999964e+00 1.997000000000000108e+00 3.000000000000000279e-04
6.999990000000000205e-03 2.164000000000000146e+00 2.055000000000000160e+00 3.000000000000000279e-04
7.999990000000000226e-03 2.313000000000000167e+00 2.161000000000000032e+00 4.000000000000000192e-04
8.999990000000001114e-03 2.452999999999999847e+00 2.257000000000000117e+00 4.000000000000000192e-04
9.999990000000000268e-03 2.585999999999999854e+00 2.343999999999999861e+00 4.000000000000000192e-04
1.099989999999999996e-02 2.712000000000000188e+00 2.423999999999999932e+00 4.000000000000000192e-04
1.199990000000000084e-02 2.833000000000000185e+00 2.498000000000000220e+00 5.000000000000000104e-04
1.299990000000000000e-02 2.948999999999999844e+00 2.565999999999999837e+00 5.000000000000000104e-04
1.399990000000000089e-02 3.060000000000000053e+00 2.629999999999999893e+00 5.000000000000000104e-04
1.499990000000000004e-02 3.166999999999999815e+00 2.689000000000000057e+00 5.000000000000000104e-04
1.599990000000000093e-02 3.270999999999999908e+00 2.745000000000000107e+00 6.000000000000000559e-04
1.699990000000000182e-02 3.371999999999999886e+00 2.797000000000000153e+00 6.000000000000000559e-04
1.799989999999999923e-02 3.470000000000000195e+00 2.846999999999999975e+00 6.000000000000000559e-04
1.999990000000000101e-02 3.657000000000000028e+00 2.939000000000000057e+00 6.999999999999999929e-04
2.249989999999999976e-02 3.879000000000000004e+00 3.040999999999999925e+00 6.999999999999999929e-04
2.499990000000000198e-02 4.089000000000000412e+00 3.132000000000000117e+00 8.000000000000000383e-04
2.749990000000000073e-02 4.288999999999999702e+00 3.213000000000000078e+00 8.000000000000000383e-04
2.999989999999999948e-02 4.479000000000000092e+00 3.286999999999999922e+00 9.000000000000000838e-04
3.249989999999999823e-02 4.661999999999999922e+00 3.354000000000000092e+00 9.000000000000000838e-04
3.499990000000000046e-02 4.838000000000000078e+00 3.415999999999999925e+00 1.000000000000000021e-03
3.749989999999999574e-02 5.008000000000000007e+00 3.471999999999999975e+00 1.000000000000000021e-03
3.999989999999999796e-02 5.171999999999999709e+00 3.524999999999999911e+00 1.000000000000000021e-03
4.499989999999999546e-02 5.485999999999999766e+00 3.617999999999999883e+00 1.100000000000000066e-03
4.999989999999999990e-02 5.783000000000000362e+00 3.698999999999999844e+00 1.200000000000000112e-03
5.499989999999999740e-02 6.065000000000000391e+00 3.770000000000000018e+00 1.300000000000000157e-03
5.999989999999999490e-02 6.334999999999999964e+00 3.833000000000000185e+00 1.399999999999999986e-03
6.499989999999999934e-02 6.592999999999999972e+00 3.888999999999999790e+00 1.500000000000000031e-03
6.999990000000000379e-02 6.841999999999999638e+00 3.938000000000000167e+00 1.600000000000000077e-03
7.999989999999999879e-02 7.315000000000000391e+00 4.022999999999999687e+00 1.700000000000000122e-03
8.999989999999999379e-02 7.758000000000000007e+00 4.092999999999999972e+00 1.899999999999999996e-03
9.999990000000000268e-02 8.178000000000000824e+00 4.150000000000000355e+00 2.100000000000000304e-03
1.100000000000000006e-01 8.576999999999999957e+00 4.197000000000000064e+00 2.200000000000000133e-03
1.199999999999999956e-01 8.958000000000000185e+00 4.237000000000000099e+00 2.400000000000000223e-03
1.300000000000000044e-01 9.323999999999999844e+00 4.269999999999999574e+00 2.600000000000000314e-03
1.399989999999999846e-01 9.676000000000000156e+00 4.296999999999999709e+00 2.700000000000000143e-03
1.499989999999999934e-01 1.001999999999999957e+01 4.320000000000000284e+00 2.900000000000000234e-03
1.599990000000000023e-01 1.033999999999999986e+01 4.339000000000000412e+00 3.000000000000000062e-03
1.699990000000000112e-01 1.066000000000000014e+01 4.355000000000000426e+00 3.200000000000000153e-03
1.799989999999999923e-01 1.097000000000000064e+01 4.368000000000000327e+00 3.299999999999999982e-03
1.999990000000000101e-01 1.157000000000000028e+01 4.386000000000000121e+00 3.600000000000000335e-03
2.249990000000000046e-01 1.226999999999999957e+01 4.397999999999999687e+00 4.000000000000000083e-03
2.499989999999999990e-01 1.292999999999999972e+01 4.400999999999999801e+00 4.400000000000000265e-03
2.749990000000000490e-01 1.356000000000000050e+01 4.397999999999999687e+00 4.800000000000000447e-03
2.999990000000000157e-01 1.416000000000000014e+01 4.389000000000000234e+00 5.200000000000000629e-03
3.249990000000000379e-01 1.474000000000000021e+01 4.376000000000000334e+00 5.500000000000000548e-03
3.499990000000000046e-01 1.530000000000000071e+01 4.360000000000000320e+00 5.899999999999999863e-03
3.749990000000000268e-01 1.583999999999999986e+01 4.341000000000000192e+00 6.300000000000000044e-03
3.999990000000000490e-01 1.635999999999999943e+01 4.320999999999999730e+00 6.599999999999999964e-03
4.499990000000000379e-01 1.735000000000000142e+01 4.275999999999999801e+00 7.400000000000000328e-03
4.999990000000000268e-01 1.828999999999999915e+01 4.227999999999999758e+00 8.099999999999999561e-03
5.499990000000000157e-01 1.917999999999999972e+01 4.176999999999999602e+00 8.899999999999999925e-03
5.999990000000000601e-01 2.003000000000000114e+01 4.125000000000000000e+00 9.600000000000000894e-03
6.499989999999999934e-01 2.085000000000000142e+01 4.073000000000000398e+00 1.030000000000000013e-02
6.999990000000000379e-01 2.164000000000000057e+01 4.022000000000000242e+00 1.110000000000000049e-02
7.999990000000000157e-01 2.312999999999999901e+01 3.919999999999999929e+00 1.250000000000000069e-02
8.999989999999999934e-01 2.453000000000000114e+01 3.821000000000000174e+00 1.400000000000000029e-02
9.999990000000000823e-01 2.585999999999999943e+01 3.726999999999999869e+00 1.540000000000000049e-02
1.100000000000000089e+00 2.712000000000000099e+01 3.637000000000000011e+00 1.690000000000000183e-02
1.199999999999999956e+00 2.832999999999999829e+01 3.551000000000000156e+00 1.830000000000000029e-02
1.300000000000000044e+00 2.948999999999999844e+01 3.470000000000000195e+00 1.980000000000000163e-02
1.399999999999999911e+00 3.060000000000000142e+01 3.391999999999999904e+00 2.120000000000000009e-02
1.500000000000000000e+00 3.167000000000000171e+01 3.318999999999999950e+00 2.260000000000000203e-02
1.600000000000000089e+00 3.271000000000000085e+01 3.249000000000000110e+00 2.400000000000000050e-02
1.699999999999999956e+00 3.371999999999999886e+01 3.181999999999999940e+00 2.540000000000000244e-02
1.800000000000000044e+00 3.470000000000000284e+01 3.119000000000000217e+00 2.690000000000000030e-02
2.000000000000000000e+00 3.657000000000000028e+01 3.000000000000000000e+00 2.960000000000000131e-02
2.250000000000000000e+00 3.843999999999999773e+01 2.866000000000000103e+00 3.310000000000000442e-02
2.500000000000000000e+00 4.021000000000000085e+01 2.745999999999999996e+00 3.660000000000000059e-02
2.750000000000000000e+00 4.192000000000000171e+01 2.637000000000000011e+00 4.000000000000000083e-02
3.000000000000000000e+00 4.356000000000000227e+01 2.536999999999999922e+00 4.340000000000000108e-02
3.250000000000000000e+00 4.514999999999999858e+01 2.447000000000000064e+00 4.670000000000000540e-02
3.500000000000000000e+00 4.668999999999999773e+01 2.362999999999999989e+00 5.010000000000000564e-02
3.750000000000000000e+00 4.817000000000000171e+01 2.286999999999999922e+00 5.340000000000000302e-02
4.000000000000000000e+00 4.960999999999999943e+01 2.216000000000000192e+00 5.670000000000000040e-02
4.500000000000000000e+00 5.235999999999999943e+01 2.088000000000000078e+00 6.310000000000000331e-02
5.000000000000000000e+00 5.496000000000000085e+01 1.977000000000000091e+00 6.950000000000000622e-02
5.500000000000000000e+00 5.742999999999999972e+01 1.879000000000000004e+00 7.570000000000000340e-02
6.000000000000000000e+00 5.978000000000000114e+01 1.792000000000000037e+00 8.179999999999999771e-02
6.500000000000000000e+00 6.203999999999999915e+01 1.713000000000000078e+00 8.780000000000000304e-02
7.000000000000000000e+00 6.423000000000000398e+01 1.643000000000000016e+00 9.370000000000000551e-02
8.000000000000000000e+00 6.839000000000000057e+01 1.520000000000000018e+00 1.052000000000000018e-01
9.000000000000000000e+00 7.234000000000000341e+01 1.417000000000000037e+00 1.163000000000000006e-01
1.000000000000000000e+01 7.609999999999999432e+01 1.328999999999999959e+00 1.271000000000000185e-01
1.100000000000000000e+01 7.968999999999999773e+01 1.252999999999999892e+00 1.375000000000000111e-01
1.200000000000000000e+01 8.312000000000000455e+01 1.185999999999999943e+00 1.476999999999999980e-01
1.300000000000000000e+01 8.640000000000000568e+01 1.125999999999999890e+00 1.576000000000000179e-01
1.400000000000000000e+01 8.951999999999999602e+01 1.074000000000000066e+00 1.672000000000000153e-01
1.500000000000000000e+01 9.250000000000000000e+01 1.026000000000000023e+00 1.766000000000000070e-01
1.600000000000000000e+01 9.534000000000000341e+01 9.835000000000000409e-01 1.859000000000000097e-01
1.700000000000000000e+01 9.804999999999999716e+01 9.445999999999999952e-01 1.949000000000000177e-01
1.800000000000000000e+01 1.005999999999999943e+02 9.090000000000000302e-01 2.037000000000000199e-01
2.000000000000000000e+01 1.054000000000000057e+02 8.461999999999999522e-01 2.210000000000000020e-01
2.250000000000000000e+01 1.109000000000000057e+02 7.802999999999999936e-01 2.416999999999999982e-01
2.500000000000000000e+01 1.157000000000000028e+02 7.249999999999999778e-01 2.618000000000000327e-01
2.750000000000000000e+01 1.200000000000000000e+02 6.778999999999999471e-01 2.812000000000000055e-01
3.000000000000000000e+01 1.239000000000000057e+02 6.370999999999999996e-01 3.001000000000000334e-01
3.250000000000000000e+01 1.274000000000000057e+02 6.015000000000000346e-01 3.185999999999999943e-01
3.500000000000000000e+01 1.305000000000000000e+02 5.701000000000000512e-01 3.368000000000000438e-01
3.750000000000000000e+01 1.331999999999999886e+02 5.422000000000000153e-01 3.546000000000000263e-01
4.000000000000000000e+01 1.356999999999999886e+02 5.171000000000000041e-01 3.721000000000000418e-01
4.500000000000000000e+01 1.398000000000000114e+02 4.739999999999999769e-01 4.065000000000000280e-01
5.000000000000000000e+01 1.430999999999999943e+02 4.381999999999999784e-01 4.401000000000000467e-01
5.500000000000000000e+01 1.455999999999999943e+02 4.078999999999999848e-01 4.732999999999999985e-01
6.000000000000000000e+01 1.475000000000000000e+02 3.819000000000000172e-01 5.060999999999999943e-01
6.500000000000000000e+01 1.488000000000000114e+02 3.593000000000000083e-01 5.386000000000000787e-01
7.000000000000000000e+01 1.496999999999999886e+02 3.395000000000000240e-01 5.710000000000000631e-01
8.000000000000000000e+01 1.504000000000000057e+02 3.063000000000000167e-01 6.356000000000000538e-01
9.000000000000000000e+01 1.500000000000000000e+02 2.795000000000000262e-01 7.004000000000000226e-01
1.000000000000000000e+02 1.486999999999999886e+02 2.574000000000000177e-01 7.658000000000000362e-01
1.100000000000000000e+02 1.469000000000000057e+02 2.388000000000000123e-01 8.320000000000000728e-01
1.200000000000000000e+02 1.446999999999999886e+02 2.228999999999999870e-01 8.991999999999999993e-01
1.300000000000000000e+02 1.423000000000000114e+02 2.091999999999999971e-01 9.675000000000000266e-01
1.400000000000000000e+02 1.395999999999999943e+02 1.971999999999999864e-01 1.040000000000000036e+00
1.500000000000000000e+02 1.370000000000000000e+02 1.865999999999999881e-01 1.110000000000000098e+00
1.600000000000000000e+02 1.341999999999999886e+02 1.771999999999999964e-01 1.179999999999999938e+00
1.700000000000000000e+02 1.315000000000000000e+02 1.686999999999999889e-01 1.260000000000000009e+00
1.800000000000000000e+02 1.289000000000000057e+02 1.610999999999999932e-01 1.330000000000000071e+00
2.000000000000000000e+02 1.237000000000000028e+02 1.479000000000000037e-01 1.489999999999999991e+00
2.250000000000000000e+02 1.177000000000000028e+02 1.343999999999999917e-01 1.689999999999999947e+00
2.500000000000000000e+02 1.122000000000000028e+02 1.233000000000000068e-01 1.909999999999999920e+00
2.750000000000000000e+02 1.072000000000000028e+02 1.140000000000000041e-01 2.129999999999999893e+00
3.000000000000000000e+02 1.027000000000000028e+02 1.060999999999999999e-01 2.370000000000000107e+00
3.250000000000000000e+02 9.862999999999999545e+01 9.932000000000000550e-02 2.609999999999999876e+00
3.500000000000000000e+02 9.490999999999999659e+01 9.339999999999999691e-02 2.870000000000000107e+00
3.750000000000000000e+02 9.151000000000000512e+01 8.819000000000000450e-02 3.140000000000000124e+00
4.000000000000000000e+02 8.840000000000000568e+01 8.358000000000000151e-02 3.410000000000000142e+00
4.500000000000000000e+02 8.290999999999999659e+01 7.574000000000000177e-02 3.990000000000000213e+00
5.000000000000000000e+02 7.820000000000000284e+01 6.933000000000000274e-02 4.610000000000000320e+00
5.500000000000000000e+02 7.412000000000000455e+01 6.399000000000000521e-02 5.259999999999999787e+00
6.000000000000000000e+02 7.054999999999999716e+01 5.945999999999999897e-02 5.950000000000000178e+00
6.500000000000000000e+02 6.739000000000000057e+01 5.557000000000000134e-02 6.669999999999999929e+00
7.000000000000000000e+02 6.456999999999999318e+01 5.217999999999999722e-02 7.419999999999999929e+00
8.000000000000000000e+02 5.978000000000000114e+01 4.658000000000000335e-02 9.019999999999999574e+00
9.000000000000000000e+02 5.584000000000000341e+01 4.213000000000000078e-02 1.074000000000000021e+01
1.000000000000000000e+03 5.256000000000000227e+01 3.849999999999999950e-02 1.257000000000000028e+01
1.100000000000000000e+03 5.014000000000000057e+01 3.547999999999999765e-02 1.450999999999999979e+01
1.200000000000000000e+03 4.775999999999999801e+01 3.291999999999999788e-02 1.653999999999999915e+01
1.300000000000000000e+03 4.543999999999999773e+01 3.073000000000000037e-02 1.867999999999999972e+01
1.400000000000000000e+03 4.336999999999999744e+01 2.883000000000000146e-02 2.092000000000000171e+01
1.500000000000000000e+03 4.150999999999999801e+01 2.716000000000000011e-02 2.326999999999999957e+01
1.600000000000000000e+03 3.979999999999999716e+01 2.568000000000000144e-02 2.571000000000000085e+01
1.700000000000000000e+03 3.824000000000000199e+01 2.436999999999999930e-02 2.826999999999999957e+01
1.800000000000000000e+03 3.679999999999999716e+01 2.318999999999999881e-02 3.092000000000000171e+01
2.000000000000000000e+03 3.424000000000000199e+01 2.116000000000000172e-02 3.653000000000000114e+01
2.250000000000000000e+03 3.153000000000000114e+01 1.909999999999999892e-02 4.410999999999999943e+01
2.500000000000000000e+03 2.925000000000000000e+01 1.742000000000000146e-02 5.229999999999999716e+01
2.750000000000000000e+03 2.730999999999999872e+01 1.602999999999999911e-02 6.110999999999999943e+01
3.000000000000000000e+03 2.564000000000000057e+01 1.485000000000000035e-02 7.051999999999999602e+01
3.250000000000000000e+03 2.419000000000000128e+01 1.384999999999999946e-02 8.051999999999999602e+01
3.500000000000000000e+03 2.289999999999999858e+01 1.297000000000000063e-02 9.109999999999999432e+01
3.750000000000000000e+03 2.176000000000000156e+01 1.221000000000000037e-02 1.022600000000000051e+02
4.000000000000000000e+03 2.075000000000000000e+01 1.153999999999999991e-02 1.139800000000000040e+02
4.500000000000000000e+03 1.900000000000000000e+01 1.039999999999999952e-02 1.390699999999999932e+02
5.000000000000000000e+03 1.755000000000000071e+01 9.473000000000000517e-03 1.663600000000000136e+02
5.500000000000000000e+03 1.632999999999999829e+01 8.706999999999999462e-03 1.958000000000000114e+02
6.000000000000000000e+03 1.527999999999999936e+01 8.061000000000000457e-03 2.273499999999999943e+02
6.500000000000000000e+03 1.436999999999999922e+01 7.509000000000000050e-03 2.609800000000000182e+02
7.000000000000000000e+03 1.357000000000000028e+01 7.030999999999999923e-03 2.966600000000000250e+02
8.000000000000000000e+03 1.224000000000000021e+01 6.244000000000000418e-03 3.739800000000000182e+02
9.000000000000000000e+03 1.116999999999999993e+01 5.622000000000000261e-03 4.592200000000000273e+02
1.000000000000000000e+04 1.028999999999999915e+01 5.117000000000000021e-03 5.522100000000000364e+02
1.100000000000000000e+04 9.547000000000000597e+00 4.700000000000000185e-03 6.527999999999999545e+02
1.200000000000000000e+04 8.914999999999999147e+00 4.348000000000000302e-03 7.608500000000000227e+02
1.300000000000000000e+04 8.369999999999999218e+00 4.047000000000000250e-03 8.762599999999999909e+02
1.400000000000000000e+04 7.892999999999999794e+00 3.787000000000000002e-03 9.989199999999999591e+02
1.500000000000000000e+04 7.472999999999999865e+00 3.559999999999999797e-03 1.130000000000000000e+03
1.600000000000000000e+04 7.099999999999999645e+00 3.359000000000000007e-03 1.270000000000000000e+03
1.700000000000000000e+04 6.766000000000000014e+00 3.180999999999999800e-03 1.410000000000000000e+03
1.800000000000000000e+04 6.466000000000000192e+00 3.021999999999999947e-03 1.560000000000000000e+03
2.000000000000000000e+04 5.945000000000000284e+00 2.749000000000000141e-03 1.880000000000000000e+03
2.250000000000000000e+04 5.413000000000000256e+00 2.471999999999999805e-03 2.320000000000000000e+03
2.500000000000000000e+04 4.977000000000000313e+00 2.247999999999999998e-03 2.800000000000000000e+03
2.750000000000000000e+04 4.612000000000000099e+00 2.062000000000000031e-03 3.320000000000000000e+03
3.000000000000000000e+04 4.304000000000000270e+00 1.905999999999999925e-03 3.880000000000000000e+03
3.250000000000000000e+04 4.038000000000000256e+00 1.773000000000000053e-03 4.480000000000000000e+03
3.500000000000000000e+04 3.806999999999999940e+00 1.657999999999999969e-03 5.120000000000000000e+03
3.750000000000000000e+04 3.604999999999999982e+00 1.557999999999999923e-03 5.790000000000000000e+03
4.000000000000000000e+04 3.424999999999999822e+00 1.469000000000000037e-03 6.500000000000000000e+03
