# Energy(keV)  dEe/dx(keV/micro_m)  dEn/dx(keV/micro_m)  x(micro_m)
1.100000000000000066e-03 1.217999999999999972e+00 1.078999999999999915e+01 1.000000000000000048e-04
1.199999999999999895e-03 1.217999999999999972e+00 1.143999999999999950e+01 1.000000000000000048e-04
1.300000000000000157e-03 1.268000000000000016e+00 1.207000000000000028e+01 1.000000000000000048e-04
1.399999999999999986e-03 1.314999999999999947e+00 1.267999999999999972e+01 1.000000000000000048e-04
1.500000000000000031e-03 1.362000000000000099e+00 1.326999999999999957e+01 1.000000000000000048e-04
1.600000000000000077e-03 1.405999999999999917e+00 1.384999999999999964e+01 1.000000000000000048e-04
1.699999999999999905e-03 1.449999999999999956e+00 1.441999999999999993e+01 2.000000000000000096e-04
1.800000000000000168e-03 1.491999999999999993e+00 1.497000000000000064e+01 2.000000000000000096e-04
2.000000000000000042e-03 1.572000000000000064e+00 1.605000000000000071e+01 2.000000000000000096e-04
2.250000000000000264e-03 1.667999999999999927e+00 1.733999999999999986e+01 2.000000000000000096e-04
2.499990000000000111e-03 1.758000000000000007e+00 1.857000000000000028e+01 2.000000000000000096e-04
2.749989999999999900e-03 1.844000000000000083e+00 1.975000000000000000e+01 2.000000000000000096e-04
2.999990000000000122e-03 1.925999999999999934e+00 2.089999999999999858e+01 2.000000000000000096e-04
3.249989999999999910e-03 2.004000000000000004e+00 2.200000000000000000e+01 2.000000000000000096e-04
3.499990000000000132e-03 2.080000000000000071e+00 2.307999999999999829e+01 2.000000000000000096e-04
3.749989999999999921e-03 2.153000000000000025e+00 2.412000000000000099e+01 2.000000000000000096e-04
3.999990000000000143e-03 2.224000000000000199e+00 2.512999999999999901e+01 2.000000000000000096e-04
4.499990000000000587e-03 2.358000000000000096e+00 2.708999999999999986e+01 2.000000000000000096e-04
4.999990000000000163e-03 2.486000000000000210e+00 2.896000000000000085e+01 2.000000000000000096e-04
5.499990000000000608e-03 2.607000000000000206e+00 3.075000000000000000e+01 3.000000000000000279e-04
5.999990000000000184e-03 2.722999999999999865e+00 3.246999999999999886e+01 3.000000000000000279e-04
6.499990000000000628e-03 2.834999999999999964e+00 3.414000000000000057e+01 3.000000000000000279e-04
6.999990000000000205e-03 2.942000000000000171e+00 3.575000000000000000e+01 3.000000000000000279e-04
7.999990000000000226e-03 3.145000000000000018e+00 3.882999999999999829e+01 3.000000000000000279e-04
8.999990000000001114e-03 3.334999999999999964e+00 4.175000000000000000e+01 3.000000000000000279e-04
9.999990000000000268e-03 3.516000000000000014e+00 4.453000000000000114e+01 3.000000000000000279e-04
1.099989999999999996e-02 3.686999999999999833e+00 4.718999999999999773e+01 3.000000000000000279e-04
1.199990000000000084e-02 3.850999999999999979e+00 4.974000000000000199e+01 3.000000000000000279e-04
1.299990000000000000e-02 4.009000000000000341e+00 5.220000000000000284e+01 4.000000000000000192e-04
1.399990000000000089e-02 4.160000000000000142e+00 5.457000000000000028e+01 4.000000000000000192e-04
1.499990000000000004e-02 4.306000000000000050e+00 5.685999999999999943e+01 4.000000000000000192e-04
1.599990000000000093e-02 4.447000000000000064e+00 5.909000000000000341e+01 4.000000000000000192e-04
1.699990000000000182e-02 4.583999999999999631e+00 6.125000000000000000e+01 4.000000000000000192e-04
1.799989999999999923e-02 4.716999999999999638e+00 6.335000000000000142e+01 4.000000000000000192e-04
1.999990000000000101e-02 4.972000000000000419e+00 6.740000000000000568e+01 4.000000000000000192e-04
2.249989999999999976e-02 5.274000000000000021e+00 7.218999999999999773e+01 4.000000000000000192e-04
2.499990000000000198e-02 5.559000000000000163e+00 7.673999999999999488e+01 5.000000000000000104e-04
2.749990000000000073e-02 5.830000000000000071e+00 8.106000000000000227e+01 5.000000000000000104e-04
2.999989999999999948e-02 6.089999999999999858e+00 8.518999999999999773e+01 5.000000000000000104e-04
3.249989999999999823e-02 6.338000000000000078e+00 8.915999999999999659e+01 5.000000000000000104e-04
3.499990000000000046e-02 6.576999999999999957e+00 9.296999999999999886e+01 5.000000000000000104e-04
3.749989999999999574e-02 6.807999999999999829e+00 9.664000000000000057e+01 5.000000000000000104e-04
3.999989999999999796e-02 7.032000000000000028e+00 1.002000000000000028e+02 6.000000000000000559e-04
4.499989999999999546e-02 7.458000000000000185e+00 1.070000000000000000e+02 6.000000000000000559e-04
4.999989999999999990e-02 7.862000000000000099e+00 1.132999999999999972e+02 6.000000000000000559e-04
5.499989999999999740e-02 8.244999999999999218e+00 1.194000000000000057e+02 6.000000000000000559e-04
5.999989999999999490e-02 8.612000000000000099e+00 1.250999999999999943e+02 6.999999999999999929e-04
6.499989999999999934e-02 8.964000000000000412e+00 1.305999999999999943e+02 6.999999999999999929e-04
6.999990000000000379e-02 9.301999999999999602e+00 1.359000000000000057e+02 6.999999999999999929e-04
7.999989999999999879e-02 9.944000000000000838e+00 1.458000000000000114e+02 6.999999999999999929e-04
8.999989999999999379e-02 1.055000000000000071e+01 1.550999999999999943e+02 8.000000000000000383e-04
9.999990000000000268e-02 1.111999999999999922e+01 1.638000000000000114e+02 8.000000000000000383e-04
1.100000000000000006e-01 1.166000000000000014e+01 1.719000000000000057e+02 8.000000000000000383e-04
1.199999999999999956e-01 1.217999999999999972e+01 1.796999999999999886e+02 9.000000000000000838e-04
1.300000000000000044e-01 1.267999999999999972e+01 1.870000000000000000e+02 9.000000000000000838e-04
1.399989999999999846e-01 1.315000000000000036e+01 1.940000000000000000e+02 9.000000000000000838e-04
1.499989999999999934e-01 1.361999999999999922e+01 2.008000000000000114e+02 1.000000000000000021e-03
1.599990000000000023e-01 1.406000000000000050e+01 2.071999999999999886e+02 1.000000000000000021e-03
1.699990000000000112e-01 1.450000000000000000e+01 2.134000000000000057e+02 1.000000000000000021e-03
1.799989999999999923e-01 1.491999999999999993e+01 2.193000000000000114e+02 1.100000000000000066e-03
1.999990000000000101e-01 1.572000000000000064e+01 2.305999999999999943e+02 1.100000000000000066e-03
2.249990000000000046e-01 1.667999999999999972e+01 2.436999999999999886e+02 1.200000000000000112e-03
2.499989999999999990e-01 1.757999999999999829e+01 2.559000000000000057e+02 1.200000000000000112e-03
2.749990000000000490e-01 1.844000000000000128e+01 2.673000000000000114e+02 1.300000000000000157e-03
2.999990000000000157e-01 1.926000000000000156e+01 2.778999999999999773e+02 1.399999999999999986e-03
3.249990000000000379e-01 2.003999999999999915e+01 2.880000000000000000e+02 1.399999999999999986e-03
3.499990000000000046e-01 2.080000000000000071e+01 2.975000000000000000e+02 1.500000000000000031e-03
3.749990000000000268e-01 2.153000000000000114e+01 3.065000000000000000e+02 1.500000000000000031e-03
3.999990000000000490e-01 2.223999999999999844e+01 3.151000000000000227e+02 1.600000000000000077e-03
4.499990000000000379e-01 2.357999999999999829e+01 3.311999999999999886e+02 1.700000000000000122e-03
4.999990000000000268e-01 2.485999999999999943e+01 3.460000000000000000e+02 1.800000000000000168e-03
5.499990000000000157e-01 2.607000000000000028e+01 3.596000000000000227e+02 1.800000000000000168e-03
5.999990000000000601e-01 2.723000000000000043e+01 3.723999999999999773e+02 1.899999999999999996e-03
6.499989999999999934e-01 2.835000000000000142e+01 3.841999999999999886e+02 2.000000000000000042e-03
6.999990000000000379e-01 2.942000000000000171e+01 3.953999999999999773e+02 2.100000000000000304e-03
7.999990000000000157e-01 3.144999999999999929e+01 4.158999999999999773e+02 2.200000000000000133e-03
8.999989999999999934e-01 3.335000000000000142e+01 4.343000000000000114e+02 2.400000000000000223e-03
9.999990000000000823e-01 3.515999999999999659e+01 4.511000000000000227e+02 2.500000000000000052e-03
1.100000000000000089e+00 3.686999999999999744e+01 4.663999999999999773e+02 2.700000000000000143e-03
1.199999999999999956e+00 3.850999999999999801e+01 4.805000000000000000e+02 2.799999999999999972e-03
1.300000000000000044e+00 4.009000000000000341e+01 4.935000000000000000e+02 3.000000000000000062e-03
1.399999999999999911e+00 4.160000000000000142e+01 5.056999999999999886e+02 3.100000000000000325e-03
1.500000000000000000e+00 4.306000000000000227e+01 5.170000000000000000e+02 3.200000000000000153e-03
1.600000000000000089e+00 4.446999999999999886e+01 5.277000000000000455e+02 3.299999999999999982e-03
1.699999999999999956e+00 4.584000000000000341e+01 5.377000000000000455e+02 3.500000000000000073e-03
1.800000000000000044e+00 4.717000000000000171e+01 5.471000000000000227e+02 3.600000000000000335e-03
2.000000000000000000e+00 4.971999999999999886e+01 5.645000000000000000e+02 3.799999999999999992e-03
2.250000000000000000e+00 5.274000000000000199e+01 5.837999999999999545e+02 4.100000000000000346e-03
2.500000000000000000e+00 5.559000000000000341e+01 6.010000000000000000e+02 4.400000000000000265e-03
2.750000000000000000e+00 5.829999999999999716e+01 6.163999999999999773e+02 4.700000000000000185e-03
3.000000000000000000e+00 6.089999999999999858e+01 6.302999999999999545e+02 4.899999999999999842e-03
3.250000000000000000e+00 6.338000000000000256e+01 6.428999999999999773e+02 5.200000000000000629e-03
3.500000000000000000e+00 6.578000000000000114e+01 6.543999999999999773e+02 5.400000000000000286e-03
3.750000000000000000e+00 6.807999999999999829e+01 6.648999999999999773e+02 5.700000000000000205e-03
4.000000000000000000e+00 7.031999999999999318e+01 6.746000000000000227e+02 5.899999999999999863e-03
4.500000000000000000e+00 7.457999999999999829e+01 6.918999999999999773e+02 6.400000000000000307e-03
5.000000000000000000e+00 7.862000000000000455e+01 7.068999999999999773e+02 6.900000000000000751e-03
5.500000000000000000e+00 8.245000000000000284e+01 7.198999999999999773e+02 7.400000000000000328e-03
6.000000000000000000e+00 8.612000000000000455e+01 7.312999999999999545e+02 7.900000000000000772e-03
6.500000000000000000e+00 8.964000000000000057e+01 7.412999999999999545e+02 8.300000000000000086e-03
7.000000000000000000e+00 9.301999999999999602e+01 7.502999999999999545e+02 8.800000000000000530e-03
8.000000000000000000e+00 9.943999999999999773e+01 7.652999999999999545e+02 9.700000000000000289e-03
9.000000000000000000e+00 1.055000000000000000e+02 7.773999999999999773e+02 1.050000000000000065e-02
1.000000000000000000e+01 1.112000000000000028e+02 7.872000000000000455e+02 1.140000000000000041e-02
1.100000000000000000e+01 1.165999999999999943e+02 7.951000000000000227e+02 1.230000000000000017e-02
1.200000000000000000e+01 1.217999999999999972e+02 8.015000000000000000e+02 1.310000000000000053e-02
1.300000000000000000e+01 1.267999999999999972e+02 8.066000000000000227e+02 1.390000000000000090e-02
1.400000000000000000e+01 1.315999999999999943e+02 8.107999999999999545e+02 1.480000000000000066e-02
1.500000000000000000e+01 1.361999999999999886e+02 8.141000000000000227e+02 1.560000000000000102e-02
1.600000000000000000e+01 1.405999999999999943e+02 8.167000000000000455e+02 1.640000000000000138e-02
1.700000000000000000e+01 1.450000000000000000e+02 8.186000000000000227e+02 1.729999999999999941e-02
1.800000000000000000e+01 1.491999999999999886e+02 8.200000000000000000e+02 1.810000000000000150e-02
2.000000000000000000e+01 1.571999999999999886e+02 8.215000000000000000e+02 1.970000000000000223e-02
2.250000000000000000e+01 1.668000000000000114e+02 8.212999999999999545e+02 2.170000000000000054e-02
2.500000000000000000e+01 1.758000000000000114e+02 8.196000000000000227e+02 2.380000000000000171e-02
2.750000000000000000e+01 1.844000000000000057e+02 8.166000000000000227e+02 2.580000000000000002e-02
3.000000000000000000e+01 1.925999999999999943e+02 8.127999999999999545e+02 2.780000000000000179e-02
3.250000000000000000e+01 2.004000000000000057e+02 8.083999999999999773e+02 2.980000000000000010e-02
3.500000000000000000e+01 2.080000000000000000e+02 8.033999999999999773e+02 3.190000000000000474e-02
3.750000000000000000e+01 2.153000000000000114e+02 7.981000000000000227e+02 3.389999999999999958e-02
4.000000000000000000e+01 2.224000000000000057e+02 7.925000000000000000e+02 3.590000000000000135e-02
4.500000000000000000e+01 2.359000000000000057e+02 7.807000000000000455e+02 4.000000000000000083e-02
5.000000000000000000e+01 2.485999999999999943e+02 7.686000000000000227e+02 4.410000000000000031e-02
5.500000000000000000e+01 2.606999999999999886e+02 7.563999999999999773e+02 4.819999999999999979e-02
6.000000000000000000e+01 2.723000000000000114e+02 7.442000000000000455e+02 5.229999999999999927e-02
6.500000000000000000e+01 2.835000000000000000e+02 7.322999999999999545e+02 5.640000000000000568e-02
7.000000000000000000e+01 2.941999999999999886e+02 7.205000000000000000e+02 6.060000000000000109e-02
8.000000000000000000e+01 3.178000000000000114e+02 6.977999999999999545e+02 6.900000000000000577e-02
9.000000000000000000e+01 3.491000000000000227e+02 6.763999999999999773e+02 7.740000000000001046e-02
1.000000000000000000e+02 3.745000000000000000e+02 6.562000000000000455e+02 8.569999999999999840e-02
1.100000000000000000e+02 3.956999999999999886e+02 6.372999999999999545e+02 9.410000000000000309e-02
1.200000000000000000e+02 4.138000000000000114e+02 6.195000000000000000e+02 1.025000000000000078e-01
1.300000000000000000e+02 4.298000000000000114e+02 6.028999999999999773e+02 1.108999999999999986e-01
1.400000000000000000e+02 4.441000000000000227e+02 5.871000000000000227e+02 1.194000000000000061e-01
1.500000000000000000e+02 4.573000000000000114e+02 5.723999999999999773e+02 1.279000000000000137e-01
1.600000000000000000e+02 4.696000000000000227e+02 5.583999999999999773e+02 1.365000000000000102e-01
1.700000000000000000e+02 4.811999999999999886e+02 5.452000000000000455e+02 1.451000000000000068e-01
1.800000000000000000e+02 4.923000000000000114e+02 5.327000000000000455e+02 1.537000000000000033e-01
2.000000000000000000e+02 5.132000000000000455e+02 5.096999999999999886e+02 1.711000000000000021e-01
2.250000000000000000e+02 5.378999999999999773e+02 4.840000000000000000e+02 1.929000000000000159e-01
2.500000000000000000e+02 5.612999999999999545e+02 4.611999999999999886e+02 2.149000000000000077e-01
2.750000000000000000e+02 5.840000000000000000e+02 4.408000000000000114e+02 2.370000000000000162e-01
3.000000000000000000e+02 6.062000000000000455e+02 4.223999999999999773e+02 2.590000000000000080e-01
3.250000000000000000e+02 6.281000000000000227e+02 4.056999999999999886e+02 2.811000000000000165e-01
3.500000000000000000e+02 6.496000000000000227e+02 3.905000000000000000e+02 3.031000000000000361e-01
3.750000000000000000e+02 6.710000000000000000e+02 3.766000000000000227e+02 3.250000000000000111e-01
4.000000000000000000e+02 6.921000000000000227e+02 3.638000000000000114e+02 3.467999999999999972e-01
4.500000000000000000e+02 7.341000000000000227e+02 3.411000000000000227e+02 3.901000000000000023e-01
5.000000000000000000e+02 7.757000000000000455e+02 3.213999999999999773e+02 4.327000000000000290e-01
5.500000000000000000e+02 8.168999999999999773e+02 3.041999999999999886e+02 4.746000000000000218e-01
6.000000000000000000e+02 8.577999999999999545e+02 2.890000000000000000e+02 5.158000000000000362e-01
6.500000000000000000e+02 8.982999999999999545e+02 2.755000000000000000e+02 5.561000000000000387e-01
7.000000000000000000e+02 9.383999999999999773e+02 2.633999999999999773e+02 5.957000000000000073e-01
8.000000000000000000e+02 1.018000000000000000e+03 2.425000000000000000e+02 6.723000000000000087e-01
9.000000000000000000e+02 1.096000000000000000e+03 2.250999999999999943e+02 7.457000000000000295e-01
1.000000000000000000e+03 1.172000000000000000e+03 2.103000000000000114e+02 8.162000000000000366e-01
1.100000000000000000e+03 1.247000000000000000e+03 1.975000000000000000e+02 8.837000000000000410e-01
1.200000000000000000e+03 1.321000000000000000e+03 1.865000000000000000e+02 9.487000000000000988e-01
1.300000000000000000e+03 1.393000000000000000e+03 1.766999999999999886e+02 1.010000000000000009e+00
1.400000000000000000e+03 1.463000000000000000e+03 1.680000000000000000e+02 1.070000000000000062e+00
1.500000000000000000e+03 1.533000000000000000e+03 1.603000000000000114e+02 1.129999999999999893e+00
1.600000000000000000e+03 1.601000000000000000e+03 1.533000000000000114e+02 1.189999999999999947e+00
1.700000000000000000e+03 1.667000000000000000e+03 1.470000000000000000e+02 1.239999999999999991e+00
1.800000000000000000e+03 1.733000000000000000e+03 1.411999999999999886e+02 1.290000000000000036e+00
2.000000000000000000e+03 1.860000000000000000e+03 1.310999999999999943e+02 1.389999999999999902e+00
2.250000000000000000e+03 2.013000000000000000e+03 1.205000000000000000e+02 1.510000000000000009e+00
2.500000000000000000e+03 2.159000000000000000e+03 1.117000000000000028e+02 1.620000000000000107e+00
2.750000000000000000e+03 2.299000000000000000e+03 1.042000000000000028e+02 1.729999999999999982e+00
3.000000000000000000e+03 2.434000000000000000e+03 9.770000000000000284e+01 1.830000000000000071e+00
3.250000000000000000e+03 2.563000000000000000e+03 9.207999999999999829e+01 1.919999999999999929e+00
3.500000000000000000e+03 2.687000000000000000e+03 8.712999999999999545e+01 2.009999999999999787e+00
3.750000000000000000e+03 2.806000000000000000e+03 8.273000000000000398e+01 2.100000000000000089e+00
4.000000000000000000e+03 2.921000000000000000e+03 7.879999999999999716e+01 2.180000000000000160e+00
4.500000000000000000e+03 3.138000000000000000e+03 7.206999999999999318e+01 2.339999999999999858e+00
5.000000000000000000e+03 3.340000000000000000e+03 6.648000000000000398e+01 2.490000000000000213e+00
5.500000000000000000e+03 3.526000000000000000e+03 6.178000000000000114e+01 2.629999999999999893e+00
6.000000000000000000e+03 3.700000000000000000e+03 5.775000000000000000e+01 2.770000000000000018e+00
6.500000000000000000e+03 3.860000000000000000e+03 5.425999999999999801e+01 2.899999999999999911e+00
7.000000000000000000e+03 4.009000000000000000e+03 5.120000000000000284e+01 3.020000000000000018e+00
8.000000000000000000e+03 4.275000000000000000e+03 4.610000000000000142e+01 3.259999999999999787e+00
9.000000000000000000e+03 4.505000000000000000e+03 4.199000000000000199e+01 3.479999999999999982e+00
1.000000000000000000e+04 4.703000000000000000e+03 3.860000000000000142e+01 3.700000000000000178e+00
1.100000000000000000e+04 4.875000000000000000e+03 3.577000000000000313e+01 3.899999999999999911e+00
1.200000000000000000e+04 5.025000000000000000e+03 3.335000000000000142e+01 4.099999999999999645e+00
1.300000000000000000e+04 5.157000000000000000e+03 3.126000000000000156e+01 4.299999999999999822e+00
1.400000000000000000e+04 5.273000000000000000e+03 2.944000000000000128e+01 4.490000000000000213e+00
1.500000000000000000e+04 5.376000000000000000e+03 2.782999999999999829e+01 4.679999999999999716e+00
1.600000000000000000e+04 5.467000000000000000e+03 2.639999999999999858e+01 4.860000000000000320e+00
1.700000000000000000e+04 5.549000000000000000e+03 2.512999999999999901e+01 5.040000000000000036e+00
1.800000000000000000e+04 5.621000000000000000e+03 2.398000000000000043e+01 5.219999999999999751e+00
2.000000000000000000e+04 5.745000000000000000e+03 2.198999999999999844e+01 5.570000000000000284e+00
2.250000000000000000e+04 5.865000000000000000e+03 1.994999999999999929e+01 5.990000000000000213e+00
2.500000000000000000e+04 5.956000000000000000e+03 1.828000000000000114e+01 6.419999999999999929e+00
2.750000000000000000e+04 6.025000000000000000e+03 1.689000000000000057e+01 6.830000000000000071e+00
3.000000000000000000e+04 6.075000000000000000e+03 1.569999999999999929e+01 7.240000000000000213e+00
3.250000000000000000e+04 6.111000000000000000e+03 1.468999999999999950e+01 7.650000000000000355e+00
3.500000000000000000e+04 6.136000000000000000e+03 1.380000000000000071e+01 8.060000000000000497e+00
3.750000000000000000e+04 6.152000000000000000e+03 1.301999999999999957e+01 8.460000000000000853e+00
4.000000000000000000e+04 6.159000000000000000e+03 1.233000000000000007e+01 8.869999999999999218e+00
