# Energy(keV)  dEe/dx(keV/micro_m)  dEn/dx(keV/micro_m)  x(micro_m)
1.100000000000000066e-03 7.016000000000000014e-01 1.014000000000000057e+01 1.000000000000000048e-04
1.199999999999999895e-03 7.016000000000000014e-01 1.073000000000000043e+01 1.000000000000000048e-04
1.300000000000000157e-03 7.301999999999999602e-01 1.130000000000000071e+01 1.000000000000000048e-04
1.399999999999999986e-03 7.578000000000000291e-01 1.184999999999999964e+01 1.000000000000000048e-04
1.500000000000000031e-03 7.843999999999999861e-01 1.239000000000000057e+01 1.000000000000000048e-04
1.600000000000000077e-03 8.101000000000000423e-01 1.291000000000000014e+01 1.000000000000000048e-04
1.699999999999999905e-03 8.349999999999999645e-01 1.341999999999999993e+01 1.000000000000000048e-04
1.800000000000000168e-03 8.592999999999999527e-01 1.391999999999999993e+01 1.000000000000000048e-04
2.000000000000000042e-03 9.056999999999999496e-01 1.488000000000000078e+01 1.000000000000000048e-04
2.250000000000000264e-03 9.606999999999999984e-01 1.603999999999999915e+01 2.000000000000000096e-04
2.499990000000000111e-03 1.012999999999999901e+00 1.712999999999999901e+01 2.000000000000000096e-04
2.749989999999999900e-03 1.062000000000000055e+00 1.819000000000000128e+01 2.000000000000000096e-04
2.999990000000000122e-03 1.108999999999999986e+00 1.919999999999999929e+01 2.000000000000000096e-04
3.249989999999999910e-03 1.155000000000000027e+00 2.017999999999999972e+01 2.000000000000000096e-04
3.499990000000000132e-03 1.197999999999999954e+00 2.112999999999999901e+01 2.000000000000000096e-04
3.749989999999999921e-03 1.239999999999999991e+00 2.205000000000000071e+01 2.000000000000000096e-04
3.999990000000000143e-03 1.280999999999999917e+00 2.294000000000000128e+01 2.000000000000000096e-04
4.499990000000000587e-03 1.358999999999999986e+00 2.464999999999999858e+01 2.000000000000000096e-04
4.999990000000000163e-03 1.431999999999999940e+00 2.628000000000000114e+01 2.000000000000000096e-04
5.499990000000000608e-03 1.502000000000000002e+00 2.783999999999999986e+01 2.000000000000000096e-04
5.999990000000000184e-03 1.568999999999999950e+00 2.932999999999999829e+01 2.000000000000000096e-04
6.499990000000000628e-03 1.633000000000000007e+00 3.076999999999999957e+01 2.000000000000000096e-04
6.999990000000000205e-03 1.693999999999999950e+00 3.215999999999999659e+01 2.000000000000000096e-04
7.999990000000000226e-03 1.810999999999999943e+00 3.479999999999999716e+01 3.000000000000000279e-04
8.999990000000001114e-03 1.921000000000000041e+00 3.728999999999999915e+01 3.000000000000000279e-04
9.999990000000000268e-03 2.024999999999999911e+00 3.965999999999999659e+01 3.000000000000000279e-04
1.099989999999999996e-02 2.124000000000000110e+00 4.190999999999999659e+01 3.000000000000000279e-04
1.199990000000000084e-02 2.218999999999999861e+00 4.406000000000000227e+01 3.000000000000000279e-04
1.299990000000000000e-02 2.309000000000000163e+00 4.611999999999999744e+01 3.000000000000000279e-04
1.399990000000000089e-02 2.395999999999999908e+00 4.810999999999999943e+01 3.000000000000000279e-04
1.499990000000000004e-02 2.479999999999999982e+00 5.002000000000000313e+01 3.000000000000000279e-04
1.599990000000000093e-02 2.561999999999999833e+00 5.188000000000000256e+01 3.000000000000000279e-04
1.699990000000000182e-02 2.641000000000000014e+00 5.367000000000000171e+01 4.000000000000000192e-04
1.799989999999999923e-02 2.717000000000000082e+00 5.540999999999999659e+01 4.000000000000000192e-04
1.999990000000000101e-02 2.863999999999999879e+00 5.874000000000000199e+01 4.000000000000000192e-04
2.249989999999999976e-02 3.037999999999999812e+00 6.267000000000000171e+01 4.000000000000000192e-04
2.499990000000000198e-02 3.201999999999999957e+00 6.637000000000000455e+01 4.000000000000000192e-04
2.749990000000000073e-02 3.358999999999999986e+00 6.987000000000000455e+01 4.000000000000000192e-04
2.999989999999999948e-02 3.508000000000000007e+00 7.320999999999999375e+01 5.000000000000000104e-04
3.249989999999999823e-02 3.650999999999999801e+00 7.639000000000000057e+01 5.000000000000000104e-04
3.499990000000000046e-02 3.789000000000000146e+00 7.943000000000000682e+01 5.000000000000000104e-04
3.749989999999999574e-02 3.922000000000000153e+00 8.234999999999999432e+01 5.000000000000000104e-04
3.999989999999999796e-02 4.051000000000000156e+00 8.517000000000000171e+01 5.000000000000000104e-04
4.499989999999999546e-02 4.296000000000000263e+00 9.050000000000000000e+01 5.000000000000000104e-04
4.999989999999999990e-02 4.528999999999999915e+00 9.548999999999999488e+01 6.000000000000000559e-04
5.499989999999999740e-02 4.750000000000000000e+00 1.002000000000000028e+02 6.000000000000000559e-04
5.999989999999999490e-02 4.961000000000000298e+00 1.045999999999999943e+02 6.000000000000000559e-04
6.499989999999999934e-02 5.163999999999999702e+00 1.089000000000000057e+02 6.000000000000000559e-04
6.999990000000000379e-02 5.357999999999999652e+00 1.129000000000000057e+02 6.999999999999999929e-04
7.999989999999999879e-02 5.727999999999999758e+00 1.204000000000000057e+02 6.999999999999999929e-04
8.999989999999999379e-02 6.075999999999999623e+00 1.274000000000000057e+02 6.999999999999999929e-04
9.999990000000000268e-02 6.405000000000000249e+00 1.338000000000000114e+02 8.000000000000000383e-04
1.100000000000000006e-01 6.716999999999999638e+00 1.398000000000000114e+02 8.000000000000000383e-04
1.199999999999999956e-01 7.016000000000000014e+00 1.455000000000000000e+02 9.000000000000000838e-04
1.300000000000000044e-01 7.301999999999999602e+00 1.508000000000000114e+02 9.000000000000000838e-04
1.399989999999999846e-01 7.578000000000000291e+00 1.559000000000000057e+02 9.000000000000000838e-04
1.499989999999999934e-01 7.844000000000000306e+00 1.606999999999999886e+02 1.000000000000000021e-03
1.599990000000000023e-01 8.101000000000000867e+00 1.653000000000000114e+02 1.000000000000000021e-03
1.699990000000000112e-01 8.351000000000000867e+00 1.696999999999999886e+02 1.000000000000000021e-03
1.799989999999999923e-01 8.592999999999999972e+00 1.739000000000000057e+02 1.100000000000000066e-03
1.999990000000000101e-01 9.057000000000000384e+00 1.818000000000000114e+02 1.100000000000000066e-03
2.249990000000000046e-01 9.606999999999999318e+00 1.909000000000000057e+02 1.200000000000000112e-03
2.499989999999999990e-01 1.013000000000000078e+01 1.991999999999999886e+02 1.300000000000000157e-03
2.749990000000000490e-01 1.061999999999999922e+01 2.069000000000000057e+02 1.300000000000000157e-03
2.999990000000000157e-01 1.108999999999999986e+01 2.140000000000000000e+02 1.399999999999999986e-03
3.249990000000000379e-01 1.155000000000000071e+01 2.206999999999999886e+02 1.500000000000000031e-03
3.499990000000000046e-01 1.198000000000000043e+01 2.269000000000000057e+02 1.500000000000000031e-03
3.749990000000000268e-01 1.240000000000000036e+01 2.328000000000000114e+02 1.600000000000000077e-03
3.999990000000000490e-01 1.281000000000000050e+01 2.384000000000000057e+02 1.600000000000000077e-03
4.499990000000000379e-01 1.358999999999999986e+01 2.485999999999999943e+02 1.800000000000000168e-03
4.999990000000000268e-01 1.432000000000000028e+01 2.578999999999999773e+02 1.899999999999999996e-03
5.499990000000000157e-01 1.501999999999999957e+01 2.663999999999999773e+02 2.000000000000000042e-03
5.999990000000000601e-01 1.568999999999999950e+01 2.741999999999999886e+02 2.100000000000000304e-03
6.499989999999999934e-01 1.632999999999999829e+01 2.813999999999999773e+02 2.200000000000000133e-03
6.999990000000000379e-01 1.694000000000000128e+01 2.881000000000000227e+02 2.299999999999999961e-03
7.999990000000000157e-01 1.810999999999999943e+01 3.001999999999999886e+02 2.500000000000000052e-03
8.999989999999999934e-01 1.921000000000000085e+01 3.108000000000000114e+02 2.700000000000000143e-03
9.999990000000000823e-01 2.025000000000000000e+01 3.203000000000000114e+02 2.799999999999999972e-03
1.100000000000000089e+00 2.123999999999999844e+01 3.288000000000000114e+02 3.000000000000000062e-03
1.199999999999999956e+00 2.219000000000000128e+01 3.365000000000000000e+02 3.200000000000000153e-03
1.300000000000000044e+00 2.308999999999999986e+01 3.436000000000000227e+02 3.400000000000000244e-03
1.399999999999999911e+00 2.396000000000000085e+01 3.500000000000000000e+02 3.600000000000000335e-03
1.500000000000000000e+00 2.480000000000000071e+01 3.558999999999999773e+02 3.700000000000000164e-03
1.600000000000000089e+00 2.562000000000000099e+01 3.613999999999999773e+02 3.900000000000000255e-03
1.699999999999999956e+00 2.641000000000000014e+01 3.663999999999999773e+02 4.100000000000000346e-03
1.800000000000000044e+00 2.717000000000000171e+01 3.711000000000000227e+02 4.200000000000000608e-03
2.000000000000000000e+00 2.864000000000000057e+01 3.796000000000000227e+02 4.500000000000000527e-03
2.250000000000000000e+00 3.037999999999999901e+01 3.886999999999999886e+02 4.899999999999999842e-03
2.500000000000000000e+00 3.202000000000000313e+01 3.965000000000000000e+02 5.300000000000000024e-03
2.750000000000000000e+00 3.359000000000000341e+01 4.033000000000000114e+02 5.700000000000000205e-03
3.000000000000000000e+00 3.507999999999999829e+01 4.091999999999999886e+02 6.100000000000000387e-03
3.250000000000000000e+00 3.650999999999999801e+01 4.143000000000000114e+02 6.400000000000000307e-03
3.500000000000000000e+00 3.789000000000000057e+01 4.188999999999999773e+02 6.800000000000000488e-03
3.750000000000000000e+00 3.921999999999999886e+01 4.228999999999999773e+02 7.200000000000000670e-03
4.000000000000000000e+00 4.050999999999999801e+01 4.263999999999999773e+02 7.500000000000000590e-03
4.500000000000000000e+00 4.296000000000000085e+01 4.323000000000000114e+02 8.300000000000000086e-03
5.000000000000000000e+00 4.528999999999999915e+01 4.370000000000000000e+02 9.000000000000001055e-03
5.500000000000000000e+00 4.750000000000000000e+01 4.406999999999999886e+02 9.700000000000000289e-03
6.000000000000000000e+00 4.960999999999999943e+01 4.436000000000000227e+02 1.040000000000000126e-02
6.500000000000000000e+00 5.164000000000000057e+01 4.458999999999999773e+02 1.110000000000000049e-02
7.000000000000000000e+00 5.359000000000000341e+01 4.476000000000000227e+02 1.179999999999999973e-02
8.000000000000000000e+00 5.728000000000000114e+01 4.496999999999999886e+02 1.319999999999999993e-02
9.000000000000000000e+00 6.075999999999999801e+01 4.506000000000000227e+02 1.460000000000000013e-02
1.000000000000000000e+01 6.404999999999999716e+01 4.503999999999999773e+02 1.600000000000000033e-02
1.100000000000000000e+01 6.717000000000000171e+01 4.496000000000000227e+02 1.740000000000000227e-02
1.200000000000000000e+01 7.015999999999999659e+01 4.481999999999999886e+02 1.880000000000000074e-02
1.300000000000000000e+01 7.301999999999999602e+01 4.465000000000000000e+02 2.020000000000000268e-02
1.400000000000000000e+01 7.578000000000000114e+01 4.443999999999999773e+02 2.160000000000000114e-02
1.500000000000000000e+01 7.843999999999999773e+01 4.420000000000000000e+02 2.299999999999999961e-02
1.600000000000000000e+01 8.101000000000000512e+01 4.395000000000000000e+02 2.440000000000000155e-02
1.700000000000000000e+01 8.351000000000000512e+01 4.368000000000000114e+02 2.580000000000000002e-02
1.800000000000000000e+01 8.593000000000000682e+01 4.340000000000000000e+02 2.730000000000000135e-02
2.000000000000000000e+01 9.057999999999999829e+01 4.281999999999999886e+02 3.010000000000000175e-02
2.250000000000000000e+01 9.606999999999999318e+01 4.208000000000000114e+02 3.380000000000000365e-02
2.500000000000000000e+01 1.012999999999999972e+02 4.133000000000000114e+02 3.749999999999999861e-02
2.750000000000000000e+01 1.062000000000000028e+02 4.058000000000000114e+02 4.120000000000000051e-02
3.000000000000000000e+01 1.109000000000000057e+02 3.985000000000000000e+02 4.500000000000000527e-02
3.250000000000000000e+01 1.155000000000000000e+02 3.913000000000000114e+02 4.880000000000000310e-02
3.500000000000000000e+01 1.197999999999999972e+02 3.843999999999999773e+02 5.260000000000000092e-02
3.750000000000000000e+01 1.240000000000000000e+02 3.776999999999999886e+02 5.650000000000000161e-02
4.000000000000000000e+01 1.280999999999999943e+02 3.711999999999999886e+02 6.040000000000000230e-02
4.500000000000000000e+01 1.359000000000000057e+02 3.588000000000000114e+02 6.829999999999999960e-02
5.000000000000000000e+01 1.479000000000000057e+02 3.473000000000000114e+02 7.630000000000000671e-02
5.500000000000000000e+01 1.635999999999999943e+02 3.366000000000000227e+02 8.440000000000000280e-02
6.000000000000000000e+01 1.759000000000000057e+02 3.265000000000000000e+02 9.240000000000000990e-02
6.500000000000000000e+01 1.858000000000000114e+02 3.171999999999999886e+02 1.004000000000000031e-01
7.000000000000000000e+01 1.939000000000000057e+02 3.083999999999999773e+02 1.084000000000000102e-01
8.000000000000000000e+01 2.065999999999999943e+02 2.925000000000000000e+02 1.248000000000000081e-01
9.000000000000000000e+01 2.165000000000000000e+02 2.783999999999999773e+02 1.413999999999999979e-01
1.000000000000000000e+02 2.250999999999999943e+02 2.658000000000000114e+02 1.582000000000000073e-01
1.100000000000000000e+02 2.330999999999999943e+02 2.545000000000000000e+02 1.754000000000000004e-01
1.200000000000000000e+02 2.409000000000000057e+02 2.443000000000000114e+02 1.927000000000000102e-01
1.300000000000000000e+02 2.486999999999999886e+02 2.350000000000000000e+02 2.101999999999999980e-01
1.400000000000000000e+02 2.566000000000000227e+02 2.265000000000000000e+02 2.278000000000000025e-01
1.500000000000000000e+02 2.646999999999999886e+02 2.186999999999999886e+02 2.455000000000000238e-01
1.600000000000000000e+02 2.731000000000000227e+02 2.115000000000000000e+02 2.631999999999999895e-01
1.700000000000000000e+02 2.816000000000000227e+02 2.048000000000000114e+02 2.810000000000000275e-01
1.800000000000000000e+02 2.903999999999999773e+02 1.985999999999999943e+02 2.987000000000000210e-01
2.000000000000000000e+02 3.085000000000000000e+02 1.875000000000000000e+02 3.340000000000000191e-01
2.250000000000000000e+02 3.321000000000000227e+02 1.755000000000000000e+02 3.777000000000000357e-01
2.500000000000000000e+02 3.565000000000000000e+02 1.650999999999999943e+02 4.205000000000000404e-01
2.750000000000000000e+02 3.813999999999999773e+02 1.560999999999999943e+02 4.624000000000000332e-01
3.000000000000000000e+02 4.068000000000000114e+02 1.480999999999999943e+02 5.032999999999999696e-01
3.250000000000000000e+02 4.323999999999999773e+02 1.410000000000000000e+02 5.431000000000000272e-01
3.500000000000000000e+02 4.581000000000000227e+02 1.346999999999999886e+02 5.817999999999999838e-01
3.750000000000000000e+02 4.840000000000000000e+02 1.290000000000000000e+02 6.193000000000000727e-01
4.000000000000000000e+02 5.098000000000000114e+02 1.237999999999999972e+02 6.559000000000000385e-01
4.500000000000000000e+02 5.612999999999999545e+02 1.147999999999999972e+02 7.258000000000000007e-01
5.000000000000000000e+02 6.123999999999999773e+02 1.070999999999999943e+02 7.919000000000000483e-01
5.500000000000000000e+02 6.628999999999999773e+02 1.005000000000000000e+02 8.545000000000000373e-01
6.000000000000000000e+02 7.126000000000000227e+02 9.479999999999999716e+01 9.139000000000000457e-01
6.500000000000000000e+02 7.615000000000000000e+02 8.976999999999999602e+01 9.705000000000000293e-01
7.000000000000000000e+02 8.097000000000000455e+02 8.531000000000000227e+01 1.020000000000000018e+00
8.000000000000000000e+02 9.035000000000000000e+02 7.773999999999999488e+01 1.129999999999999893e+00
9.000000000000000000e+02 9.940000000000000000e+02 7.154000000000000625e+01 1.219999999999999973e+00
1.000000000000000000e+03 1.081000000000000000e+03 6.634999999999999432e+01 1.310000000000000053e+00
1.100000000000000000e+03 1.166000000000000000e+03 6.193999999999999773e+01 1.389999999999999902e+00
1.200000000000000000e+03 1.248000000000000000e+03 5.814000000000000057e+01 1.459999999999999964e+00
1.300000000000000000e+03 1.327000000000000000e+03 5.482000000000000028e+01 1.530000000000000027e+00
1.400000000000000000e+03 1.403000000000000000e+03 5.189999999999999858e+01 1.600000000000000089e+00
1.500000000000000000e+03 1.477000000000000000e+03 4.931000000000000227e+01 1.669999999999999929e+00
1.600000000000000000e+03 1.549000000000000000e+03 4.699000000000000199e+01 1.729999999999999982e+00
1.700000000000000000e+03 1.619000000000000000e+03 4.489999999999999858e+01 1.790000000000000036e+00
1.800000000000000000e+03 1.686000000000000000e+03 4.300000000000000000e+01 1.850000000000000089e+00
2.000000000000000000e+03 1.815000000000000000e+03 3.970000000000000284e+01 1.959999999999999964e+00
2.250000000000000000e+03 1.967000000000000000e+03 3.628000000000000114e+01 2.089999999999999858e+00
2.500000000000000000e+03 2.107000000000000000e+03 3.345000000000000284e+01 2.200000000000000178e+00
2.750000000000000000e+03 2.237000000000000000e+03 3.107000000000000028e+01 2.319999999999999840e+00
3.000000000000000000e+03 2.358000000000000000e+03 2.903000000000000114e+01 2.419999999999999929e+00
3.250000000000000000e+03 2.471000000000000000e+03 2.726999999999999957e+01 2.520000000000000018e+00
3.500000000000000000e+03 2.574000000000000000e+03 2.571999999999999886e+01 2.620000000000000107e+00
3.750000000000000000e+03 2.670000000000000000e+03 2.435999999999999943e+01 2.709999999999999964e+00
4.000000000000000000e+03 2.759000000000000000e+03 2.314000000000000057e+01 2.799999999999999822e+00
4.500000000000000000e+03 2.917000000000000000e+03 2.107000000000000028e+01 2.979999999999999982e+00
5.000000000000000000e+03 3.050000000000000000e+03 1.935999999999999943e+01 3.140000000000000124e+00
5.500000000000000000e+03 3.164000000000000000e+03 1.792999999999999972e+01 3.299999999999999822e+00
6.000000000000000000e+03 3.259000000000000000e+03 1.671000000000000085e+01 3.459999999999999964e+00
6.500000000000000000e+03 3.340000000000000000e+03 1.566000000000000014e+01 3.609999999999999876e+00
7.000000000000000000e+03 3.408000000000000000e+03 1.474000000000000021e+01 3.750000000000000000e+00
8.000000000000000000e+03 3.513000000000000000e+03 1.322000000000000064e+01 4.040000000000000036e+00
9.000000000000000000e+03 3.588000000000000000e+03 1.200000000000000000e+01 4.320000000000000284e+00
1.000000000000000000e+04 3.639000000000000000e+03 1.100000000000000000e+01 4.599999999999999645e+00
1.100000000000000000e+04 3.674000000000000000e+03 1.016000000000000014e+01 4.870000000000000107e+00
1.200000000000000000e+04 3.696000000000000000e+03 9.454000000000000625e+00 5.139999999999999680e+00
1.300000000000000000e+04 3.708000000000000000e+03 8.843999999999999417e+00 5.410000000000000142e+00
1.400000000000000000e+04 3.712000000000000000e+03 8.311999999999999389e+00 5.679999999999999716e+00
1.500000000000000000e+04 3.710000000000000000e+03 7.846000000000000085e+00 5.940000000000000391e+00
1.600000000000000000e+04 3.703000000000000000e+03 7.432000000000000384e+00 6.209999999999999964e+00
1.700000000000000000e+04 3.693000000000000000e+03 7.062000000000000277e+00 6.480000000000000426e+00
1.800000000000000000e+04 3.680000000000000000e+03 6.730000000000000426e+00 6.750000000000000000e+00
2.000000000000000000e+04 3.647000000000000000e+03 6.157000000000000028e+00 7.299999999999999822e+00
2.250000000000000000e+04 3.597000000000000000e+03 5.572000000000000064e+00 7.990000000000000213e+00
2.500000000000000000e+04 3.543000000000000000e+03 5.094999999999999751e+00 8.679999999999999716e+00
2.750000000000000000e+04 3.487000000000000000e+03 4.697000000000000064e+00 9.390000000000000568e+00
3.000000000000000000e+04 3.429000000000000000e+03 4.360999999999999766e+00 1.011999999999999922e+01
3.250000000000000000e+04 3.372000000000000000e+03 4.072000000000000064e+00 1.084999999999999964e+01
3.500000000000000000e+04 3.315000000000000000e+03 3.821000000000000174e+00 1.159999999999999964e+01
3.750000000000000000e+04 3.259000000000000000e+03 3.600999999999999979e+00 1.235999999999999943e+01
4.000000000000000000e+04 3.205000000000000000e+03 3.407000000000000028e+00 1.313000000000000078e+01
