# Energy(keV)  dEe/dx(keV/micro_m)  dEn/dx(keV/micro_m)  x(micro_m)
1.100000000000000066e-03 1.292000000000000037e+00 1.048000000000000043e+01 1.000000000000000048e-04
1.199999999999999895e-03 1.292000000000000037e+00 1.108999999999999986e+01 1.000000000000000048e-04
1.300000000000000157e-03 1.344999999999999973e+00 1.168999999999999950e+01 1.000000000000000048e-04
1.399999999999999986e-03 1.395999999999999908e+00 1.226999999999999957e+01 1.000000000000000048e-04
1.500000000000000031e-03 1.445000000000000062e+00 1.283000000000000007e+01 1.000000000000000048e-04
1.600000000000000077e-03 1.491999999999999993e+00 1.338000000000000078e+01 1.000000000000000048e-04
1.699999999999999905e-03 1.538000000000000034e+00 1.391000000000000014e+01 1.000000000000000048e-04
1.800000000000000168e-03 1.582999999999999963e+00 1.442999999999999972e+01 1.000000000000000048e-04
2.000000000000000042e-03 1.669000000000000039e+00 1.544999999999999929e+01 2.000000000000000096e-04
2.250000000000000264e-03 1.770000000000000018e+00 1.666000000000000014e+01 2.000000000000000096e-04
2.499990000000000111e-03 1.866000000000000103e+00 1.780999999999999872e+01 2.000000000000000096e-04
2.749989999999999900e-03 1.957000000000000073e+00 1.892000000000000171e+01 2.000000000000000096e-04
2.999990000000000122e-03 2.044000000000000039e+00 1.998999999999999844e+01 2.000000000000000096e-04
3.249989999999999910e-03 2.126999999999999780e+00 2.101999999999999957e+01 2.000000000000000096e-04
3.499990000000000132e-03 2.206999999999999851e+00 2.201999999999999957e+01 2.000000000000000096e-04
3.749989999999999921e-03 2.285000000000000142e+00 2.298999999999999844e+01 2.000000000000000096e-04
3.999990000000000143e-03 2.359999999999999876e+00 2.392999999999999972e+01 2.000000000000000096e-04
4.499990000000000587e-03 2.503000000000000114e+00 2.573999999999999844e+01 2.000000000000000096e-04
4.999990000000000163e-03 2.637999999999999901e+00 2.746999999999999886e+01 2.000000000000000096e-04
5.499990000000000608e-03 2.766999999999999904e+00 2.912000000000000099e+01 2.000000000000000096e-04
5.999990000000000184e-03 2.890000000000000124e+00 3.071000000000000085e+01 2.000000000000000096e-04
6.499990000000000628e-03 3.008000000000000007e+00 3.224000000000000199e+01 2.000000000000000096e-04
6.999990000000000205e-03 3.121999999999999886e+00 3.371999999999999886e+01 3.000000000000000279e-04
7.999990000000000226e-03 3.337000000000000188e+00 3.653000000000000114e+01 3.000000000000000279e-04
8.999990000000001114e-03 3.540000000000000036e+00 3.918999999999999773e+01 3.000000000000000279e-04
9.999990000000000268e-03 3.730999999999999872e+00 4.171999999999999886e+01 3.000000000000000279e-04
1.099989999999999996e-02 3.912999999999999812e+00 4.413000000000000256e+01 3.000000000000000279e-04
1.199990000000000084e-02 4.086999999999999744e+00 4.643999999999999773e+01 3.000000000000000279e-04
1.299990000000000000e-02 4.253999999999999559e+00 4.864999999999999858e+01 3.000000000000000279e-04
1.399990000000000089e-02 4.415000000000000036e+00 5.078999999999999915e+01 3.000000000000000279e-04
1.499990000000000004e-02 4.570000000000000284e+00 5.285000000000000142e+01 3.000000000000000279e-04
1.599990000000000093e-02 4.719000000000000306e+00 5.484000000000000341e+01 3.000000000000000279e-04
1.699990000000000182e-02 4.865000000000000213e+00 5.678000000000000114e+01 4.000000000000000192e-04
1.799989999999999923e-02 5.006000000000000227e+00 5.864999999999999858e+01 4.000000000000000192e-04
1.999990000000000101e-02 5.277000000000000135e+00 6.225999999999999801e+01 4.000000000000000192e-04
2.249989999999999976e-02 5.597000000000000419e+00 6.651000000000000512e+01 4.000000000000000192e-04
2.499990000000000198e-02 5.899000000000000021e+00 7.051999999999999602e+01 4.000000000000000192e-04
2.749990000000000073e-02 6.187000000000000277e+00 7.432999999999999829e+01 4.000000000000000192e-04
2.999989999999999948e-02 6.461999999999999744e+00 7.795999999999999375e+01 5.000000000000000104e-04
3.249989999999999823e-02 6.725999999999999979e+00 8.143000000000000682e+01 5.000000000000000104e-04
3.499990000000000046e-02 6.980000000000000426e+00 8.475000000000000000e+01 5.000000000000000104e-04
3.749989999999999574e-02 7.224999999999999645e+00 8.795000000000000284e+01 5.000000000000000104e-04
3.999989999999999796e-02 7.461999999999999744e+00 9.103000000000000114e+01 5.000000000000000104e-04
4.499989999999999546e-02 7.915000000000000036e+00 9.689000000000000057e+01 5.000000000000000104e-04
4.999989999999999990e-02 8.342999999999999972e+00 1.024000000000000057e+02 6.000000000000000559e-04
5.499989999999999740e-02 8.750000000000000000e+00 1.075999999999999943e+02 6.000000000000000559e-04
5.999989999999999490e-02 9.138999999999999346e+00 1.125000000000000000e+02 6.000000000000000559e-04
6.499989999999999934e-02 9.512000000000000455e+00 1.172000000000000028e+02 6.000000000000000559e-04
6.999990000000000379e-02 9.871999999999999886e+00 1.215999999999999943e+02 6.999999999999999929e-04
7.999989999999999879e-02 1.055000000000000071e+01 1.300000000000000000e+02 6.999999999999999929e-04
8.999989999999999379e-02 1.118999999999999950e+01 1.376999999999999886e+02 6.999999999999999929e-04
9.999990000000000268e-02 1.180000000000000071e+01 1.450000000000000000e+02 8.000000000000000383e-04
1.100000000000000006e-01 1.236999999999999922e+01 1.516999999999999886e+02 8.000000000000000383e-04
1.199999999999999956e-01 1.291999999999999993e+01 1.580999999999999943e+02 8.000000000000000383e-04
1.300000000000000044e-01 1.344999999999999929e+01 1.641999999999999886e+02 9.000000000000000838e-04
1.399989999999999846e-01 1.396000000000000085e+01 1.699000000000000057e+02 9.000000000000000838e-04
1.499989999999999934e-01 1.444999999999999929e+01 1.754000000000000057e+02 9.000000000000000838e-04
1.599990000000000023e-01 1.491999999999999993e+01 1.805999999999999943e+02 1.000000000000000021e-03
1.699990000000000112e-01 1.538000000000000078e+01 1.855999999999999943e+02 1.000000000000000021e-03
1.799989999999999923e-01 1.583000000000000007e+01 1.903000000000000114e+02 1.000000000000000021e-03
1.999990000000000101e-01 1.669000000000000128e+01 1.994000000000000057e+02 1.100000000000000066e-03
2.249990000000000046e-01 1.769999999999999929e+01 2.098000000000000114e+02 1.200000000000000112e-03
2.499989999999999990e-01 1.866000000000000014e+01 2.194000000000000057e+02 1.200000000000000112e-03
2.749990000000000490e-01 1.957000000000000028e+01 2.283000000000000114e+02 1.300000000000000157e-03
2.999990000000000157e-01 2.044000000000000128e+01 2.365999999999999943e+02 1.300000000000000157e-03
3.249990000000000379e-01 2.126999999999999957e+01 2.444000000000000057e+02 1.399999999999999986e-03
3.499990000000000046e-01 2.207000000000000028e+01 2.516999999999999886e+02 1.500000000000000031e-03
3.749990000000000268e-01 2.285000000000000142e+01 2.586000000000000227e+02 1.500000000000000031e-03
3.999990000000000490e-01 2.360000000000000142e+01 2.651000000000000227e+02 1.600000000000000077e-03
4.499990000000000379e-01 2.503000000000000114e+01 2.771999999999999886e+02 1.700000000000000122e-03
4.999990000000000268e-01 2.637999999999999901e+01 2.883000000000000114e+02 1.800000000000000168e-03
5.499990000000000157e-01 2.767000000000000171e+01 2.983999999999999773e+02 1.899999999999999996e-03
5.999990000000000601e-01 2.889999999999999858e+01 3.078000000000000114e+02 2.000000000000000042e-03
6.499989999999999934e-01 3.007999999999999829e+01 3.163999999999999773e+02 2.100000000000000304e-03
6.999990000000000379e-01 3.121999999999999886e+01 3.245000000000000000e+02 2.100000000000000304e-03
7.999990000000000157e-01 3.336999999999999744e+01 3.391999999999999886e+02 2.299999999999999961e-03
8.999989999999999934e-01 3.539999999999999858e+01 3.521999999999999886e+02 2.500000000000000052e-03
9.999990000000000823e-01 3.731000000000000227e+01 3.638999999999999773e+02 2.700000000000000143e-03
1.100000000000000089e+00 3.913000000000000256e+01 3.745000000000000000e+02 2.799999999999999972e-03
1.199999999999999956e+00 4.086999999999999744e+01 3.841000000000000227e+02 3.000000000000000062e-03
1.300000000000000044e+00 4.253999999999999915e+01 3.930000000000000000e+02 3.100000000000000325e-03
1.399999999999999911e+00 4.414999999999999858e+01 4.011000000000000227e+02 3.299999999999999982e-03
1.500000000000000000e+00 4.570000000000000284e+01 4.086000000000000227e+02 3.400000000000000244e-03
1.600000000000000089e+00 4.720000000000000284e+01 4.156000000000000227e+02 3.600000000000000335e-03
1.699999999999999956e+00 4.864999999999999858e+01 4.221000000000000227e+02 3.700000000000000164e-03
1.800000000000000044e+00 5.006000000000000227e+01 4.281999999999999886e+02 3.900000000000000255e-03
2.000000000000000000e+00 5.277000000000000313e+01 4.391999999999999886e+02 4.100000000000000346e-03
2.250000000000000000e+00 5.596999999999999886e+01 4.513000000000000114e+02 4.500000000000000527e-03
2.500000000000000000e+00 5.899000000000000199e+01 4.618000000000000114e+02 4.800000000000000447e-03
2.750000000000000000e+00 6.186999999999999744e+01 4.710000000000000000e+02 5.100000000000000366e-03
3.000000000000000000e+00 6.462000000000000455e+01 4.791999999999999886e+02 5.500000000000000548e-03
3.250000000000000000e+00 6.726000000000000512e+01 4.863999999999999773e+02 5.800000000000000468e-03
3.500000000000000000e+00 6.979999999999999716e+01 4.928999999999999773e+02 6.100000000000000387e-03
3.750000000000000000e+00 7.225000000000000000e+01 4.986999999999999886e+02 6.400000000000000307e-03
4.000000000000000000e+00 7.462000000000000455e+01 5.038999999999999773e+02 6.700000000000000226e-03
4.500000000000000000e+00 7.915000000000000568e+01 5.130000000000000000e+02 7.300000000000000065e-03
5.000000000000000000e+00 8.343000000000000682e+01 5.203999999999999773e+02 7.900000000000000772e-03
5.500000000000000000e+00 8.750000000000000000e+01 5.266000000000000227e+02 8.500000000000000611e-03
6.000000000000000000e+00 9.139000000000000057e+01 5.317000000000000455e+02 9.100000000000000450e-03
6.500000000000000000e+00 9.512999999999999545e+01 5.360000000000000000e+02 9.600000000000000894e-03
7.000000000000000000e+00 9.871999999999999886e+01 5.396000000000000227e+02 1.020000000000000073e-02
8.000000000000000000e+00 1.055000000000000000e+02 5.450000000000000000e+02 1.130000000000000102e-02
9.000000000000000000e+00 1.119000000000000057e+02 5.487000000000000455e+02 1.250000000000000069e-02
1.000000000000000000e+01 1.180000000000000000e+02 5.510000000000000000e+02 1.360000000000000098e-02
1.100000000000000000e+01 1.237000000000000028e+02 5.522000000000000455e+02 1.470000000000000126e-02
1.200000000000000000e+01 1.293000000000000114e+02 5.526000000000000227e+02 1.580000000000000154e-02
1.300000000000000000e+01 1.345000000000000000e+02 5.523999999999999773e+02 1.690000000000000183e-02
1.400000000000000000e+01 1.395999999999999943e+02 5.517000000000000455e+02 1.800000000000000211e-02
1.500000000000000000e+01 1.445000000000000000e+02 5.505000000000000000e+02 1.910000000000000239e-02
1.600000000000000000e+01 1.491999999999999886e+02 5.491000000000000227e+02 2.020000000000000268e-02
1.700000000000000000e+01 1.538000000000000114e+02 5.472999999999999545e+02 2.129999999999999949e-02
1.800000000000000000e+01 1.583000000000000114e+02 5.452999999999999545e+02 2.239999999999999977e-02
2.000000000000000000e+01 1.669000000000000057e+02 5.407999999999999545e+02 2.460000000000000034e-02
2.250000000000000000e+01 1.770000000000000000e+02 5.346000000000000227e+02 2.730000000000000135e-02
2.500000000000000000e+01 1.865999999999999943e+02 5.277999999999999545e+02 3.000000000000000236e-02
2.750000000000000000e+01 1.956999999999999886e+02 5.207999999999999545e+02 3.280000000000000276e-02
3.000000000000000000e+01 2.044000000000000057e+02 5.137000000000000455e+02 3.559999999999999970e-02
3.250000000000000000e+01 2.126999999999999886e+02 5.066000000000000227e+02 3.830000000000000071e-02
3.500000000000000000e+01 2.206999999999999886e+02 4.996000000000000227e+02 4.110000000000000459e-02
3.750000000000000000e+01 2.285000000000000000e+02 4.926000000000000227e+02 4.390000000000000152e-02
4.000000000000000000e+01 2.360000000000000000e+02 4.856999999999999886e+02 4.670000000000000540e-02
4.500000000000000000e+01 2.503000000000000114e+02 4.725000000000000000e+02 5.229999999999999927e-02
5.000000000000000000e+01 2.638000000000000114e+02 4.598000000000000114e+02 5.800000000000000294e-02
5.500000000000000000e+01 2.766999999999999886e+02 4.478000000000000114e+02 6.370000000000000662e-02
6.000000000000000000e+01 2.883999999999999773e+02 4.363999999999999773e+02 6.940000000000000335e-02
6.500000000000000000e+01 3.006999999999999886e+02 4.256000000000000227e+02 7.510000000000000009e-02
7.000000000000000000e+01 3.131000000000000227e+02 4.153999999999999773e+02 8.080000000000001070e-02
8.000000000000000000e+01 3.365000000000000000e+02 3.965000000000000000e+02 9.240000000000000990e-02
9.000000000000000000e+01 3.571999999999999886e+02 3.795000000000000000e+02 1.039000000000000062e-01
1.000000000000000000e+02 3.748999999999999773e+02 3.641000000000000227e+02 1.155000000000000054e-01
1.100000000000000000e+02 3.901999999999999886e+02 3.501000000000000227e+02 1.271000000000000185e-01
1.200000000000000000e+02 4.033999999999999773e+02 3.373999999999999773e+02 1.387000000000000177e-01
1.300000000000000000e+02 4.150000000000000000e+02 3.256000000000000227e+02 1.504999999999999949e-01
1.400000000000000000e+02 4.253000000000000114e+02 3.148000000000000114e+02 1.622000000000000108e-01
1.500000000000000000e+02 4.346000000000000227e+02 3.048000000000000114e+02 1.741000000000000048e-01
1.600000000000000000e+02 4.431999999999999886e+02 2.956000000000000227e+02 1.859999999999999987e-01
1.700000000000000000e+02 4.513000000000000114e+02 2.870000000000000000e+02 1.979000000000000203e-01
1.800000000000000000e+02 4.590000000000000000e+02 2.788999999999999773e+02 2.099000000000000032e-01
2.000000000000000000e+02 4.738999999999999773e+02 2.643000000000000114e+02 2.341000000000000025e-01
2.250000000000000000e+02 4.923000000000000114e+02 2.484000000000000057e+02 2.643000000000000349e-01
2.500000000000000000e+02 5.111999999999999886e+02 2.345999999999999943e+02 2.946000000000000285e-01
2.750000000000000000e+02 5.308999999999999773e+02 2.225000000000000000e+02 3.248000000000000331e-01
3.000000000000000000e+02 5.515000000000000000e+02 2.116999999999999886e+02 3.548000000000000043e-01
3.250000000000000000e+02 5.731000000000000227e+02 2.020999999999999943e+02 3.844000000000000195e-01
3.500000000000000000e+02 5.956000000000000227e+02 1.935000000000000000e+02 4.137000000000000122e-01
3.750000000000000000e+02 6.188999999999999773e+02 1.855999999999999943e+02 4.426000000000000489e-01
4.000000000000000000e+02 6.430000000000000000e+02 1.785000000000000000e+02 4.709000000000000408e-01
4.500000000000000000e+02 6.927999999999999545e+02 1.660000000000000000e+02 5.261000000000000121e-01
5.000000000000000000e+02 7.442999999999999545e+02 1.554000000000000057e+02 5.790000000000000702e-01
5.500000000000000000e+02 7.967999999999999545e+02 1.461999999999999886e+02 6.298000000000000265e-01
6.000000000000000000e+02 8.498999999999999773e+02 1.380999999999999943e+02 6.784000000000000030e-01
6.500000000000000000e+02 9.030000000000000000e+02 1.310999999999999943e+02 7.251000000000000778e-01
7.000000000000000000e+02 9.560000000000000000e+02 1.247999999999999972e+02 7.698000000000000398e-01
8.000000000000000000e+02 1.060000000000000000e+03 1.140000000000000000e+02 8.542000000000000703e-01
9.000000000000000000e+02 1.162000000000000000e+03 1.052000000000000028e+02 9.324999999999999956e-01
1.000000000000000000e+03 1.260000000000000000e+03 9.776000000000000512e+01 1.010000000000000009e+00
1.100000000000000000e+03 1.354000000000000000e+03 9.142000000000000171e+01 1.070000000000000062e+00
1.200000000000000000e+03 1.444000000000000000e+03 8.595000000000000284e+01 1.139999999999999902e+00
1.300000000000000000e+03 1.530000000000000000e+03 8.115999999999999659e+01 1.199999999999999956e+00
1.400000000000000000e+03 1.613000000000000000e+03 7.693999999999999773e+01 1.260000000000000009e+00
1.500000000000000000e+03 1.691000000000000000e+03 7.318000000000000682e+01 1.320000000000000062e+00
1.600000000000000000e+03 1.767000000000000000e+03 6.981000000000000227e+01 1.370000000000000107e+00
1.700000000000000000e+03 1.840000000000000000e+03 6.676999999999999602e+01 1.419999999999999929e+00
1.800000000000000000e+03 1.909000000000000000e+03 6.401000000000000512e+01 1.469999999999999973e+00
2.000000000000000000e+03 2.041000000000000000e+03 5.917999999999999972e+01 1.570000000000000062e+00
2.250000000000000000e+03 2.192000000000000000e+03 5.417999999999999972e+01 1.679999999999999938e+00
2.500000000000000000e+03 2.331000000000000000e+03 5.002000000000000313e+01 1.790000000000000036e+00
2.750000000000000000e+03 2.460000000000000000e+03 4.652000000000000313e+01 1.889999999999999902e+00
3.000000000000000000e+03 2.580000000000000000e+03 4.350999999999999801e+01 1.989999999999999991e+00
3.250000000000000000e+03 2.692000000000000000e+03 4.090999999999999659e+01 2.080000000000000071e+00
3.500000000000000000e+03 2.797000000000000000e+03 3.861999999999999744e+01 2.169999999999999929e+00
3.750000000000000000e+03 2.895000000000000000e+03 3.660000000000000142e+01 2.250000000000000000e+00
4.000000000000000000e+03 2.988000000000000000e+03 3.479999999999999716e+01 2.339999999999999858e+00
4.500000000000000000e+03 3.157000000000000000e+03 3.173000000000000043e+01 2.500000000000000000e+00
5.000000000000000000e+03 3.308000000000000000e+03 2.919000000000000128e+01 2.649999999999999911e+00
5.500000000000000000e+03 3.443000000000000000e+03 2.705999999999999872e+01 2.790000000000000036e+00
6.000000000000000000e+03 3.563000000000000000e+03 2.523999999999999844e+01 2.939999999999999947e+00
6.500000000000000000e+03 3.670000000000000000e+03 2.367000000000000171e+01 3.069999999999999840e+00
7.000000000000000000e+03 3.765000000000000000e+03 2.230000000000000071e+01 3.200000000000000178e+00
8.000000000000000000e+03 3.926000000000000000e+03 2.001999999999999957e+01 3.459999999999999964e+00
9.000000000000000000e+03 4.054000000000000000e+03 1.819000000000000128e+01 3.709999999999999964e+00
1.000000000000000000e+04 4.156000000000000000e+03 1.669000000000000128e+01 3.950000000000000178e+00
1.100000000000000000e+04 4.237000000000000000e+03 1.542999999999999972e+01 4.190000000000000391e+00
1.200000000000000000e+04 4.302000000000000000e+03 1.435999999999999943e+01 4.419999999999999929e+00
1.300000000000000000e+04 4.353000000000000000e+03 1.344999999999999929e+01 4.650000000000000355e+00
1.400000000000000000e+04 4.392000000000000000e+03 1.264000000000000057e+01 4.879999999999999893e+00
1.500000000000000000e+04 4.422000000000000000e+03 1.193999999999999950e+01 5.110000000000000320e+00
1.600000000000000000e+04 4.444000000000000000e+03 1.132000000000000028e+01 5.330000000000000071e+00
1.700000000000000000e+04 4.458000000000000000e+03 1.075999999999999979e+01 5.549999999999999822e+00
1.800000000000000000e+04 4.468000000000000000e+03 1.025999999999999979e+01 5.780000000000000249e+00
2.000000000000000000e+04 4.472000000000000000e+03 9.388999999999999346e+00 6.219999999999999751e+00
2.250000000000000000e+04 4.459000000000000000e+03 8.503000000000000114e+00 6.780000000000000249e+00
2.500000000000000000e+04 4.431000000000000000e+03 7.780000000000000249e+00 7.339999999999999858e+00
2.750000000000000000e+04 4.393000000000000000e+03 7.176999999999999602e+00 7.910000000000000142e+00
3.000000000000000000e+04 4.349000000000000000e+03 6.666000000000000369e+00 8.480000000000000426e+00
3.250000000000000000e+04 4.300000000000000000e+03 6.227999999999999758e+00 9.060000000000000497e+00
3.500000000000000000e+04 4.249000000000000000e+03 5.846000000000000085e+00 9.640000000000000568e+00
3.750000000000000000e+04 4.196000000000000000e+03 5.511999999999999567e+00 1.023000000000000043e+01
4.000000000000000000e+04 4.142000000000000000e+03 5.216000000000000192e+00 1.083000000000000007e+01
