# Energy(keV)  dEe/dx(keV/micro_m)  dEn/dx(keV/micro_m)  x(micro_m)
1.100000000000000066e-03 4.001000000000000112e-01 2.440999999999999837e+00 1.000000000000000048e-04
1.199999999999999895e-03 4.001000000000000112e-01 2.532000000000000028e+00 1.000000000000000048e-04
1.300000000000000157e-03 4.163999999999999924e-01 2.617999999999999883e+00 1.000000000000000048e-04
1.399999999999999986e-03 4.320999999999999841e-01 2.698999999999999844e+00 1.000000000000000048e-04
1.500000000000000031e-03 4.472999999999999754e-01 2.775999999999999801e+00 2.000000000000000096e-04
1.600000000000000077e-03 4.620000000000000218e-01 2.849000000000000199e+00 2.000000000000000096e-04
1.699999999999999905e-03 4.762000000000000122e-01 2.918000000000000149e+00 2.000000000000000096e-04
1.800000000000000168e-03 4.899999999999999911e-01 2.984999999999999876e+00 2.000000000000000096e-04
2.000000000000000042e-03 5.164999999999999591e-01 3.108999999999999986e+00 2.000000000000000096e-04
2.250000000000000264e-03 5.477999999999999536e-01 3.250000000000000000e+00 2.000000000000000096e-04
2.499990000000000111e-03 5.775000000000000133e-01 3.379000000000000004e+00 2.000000000000000096e-04
2.749989999999999900e-03 6.056000000000000272e-01 3.496999999999999886e+00 2.000000000000000096e-04
2.999990000000000122e-03 6.326000000000000512e-01 3.605999999999999872e+00 3.000000000000000279e-04
3.249989999999999910e-03 6.583999999999999853e-01 3.708000000000000185e+00 3.000000000000000279e-04
3.499990000000000132e-03 6.833000000000000185e-01 3.802999999999999936e+00 3.000000000000000279e-04
3.749989999999999921e-03 7.072000000000000508e-01 3.891000000000000014e+00 3.000000000000000279e-04
3.999990000000000143e-03 7.304000000000000492e-01 3.975000000000000089e+00 3.000000000000000279e-04
4.499990000000000587e-03 7.747000000000000552e-01 4.128000000000000114e+00 3.000000000000000279e-04
4.999990000000000163e-03 8.165999999999999925e-01 4.264999999999999680e+00 4.000000000000000192e-04
5.499990000000000608e-03 8.565000000000000391e-01 4.389999999999999680e+00 4.000000000000000192e-04
5.999990000000000184e-03 8.945999999999999508e-01 4.503999999999999559e+00 4.000000000000000192e-04
6.499990000000000628e-03 9.311000000000000387e-01 4.607999999999999652e+00 4.000000000000000192e-04
6.999990000000000205e-03 9.663000000000000478e-01 4.705000000000000071e+00 4.000000000000000192e-04
7.999990000000000226e-03 1.032999999999999918e+00 4.876999999999999780e+00 5.000000000000000104e-04
8.999990000000001114e-03 1.096000000000000085e+00 5.027999999999999581e+00 5.000000000000000104e-04
9.999990000000000268e-03 1.155000000000000027e+00 5.160000000000000142e+00 5.000000000000000104e-04
1.099989999999999996e-02 1.211000000000000076e+00 5.277999999999999581e+00 6.000000000000000559e-04
1.199990000000000084e-02 1.264999999999999902e+00 5.384000000000000341e+00 6.000000000000000559e-04
1.299990000000000000e-02 1.316999999999999948e+00 5.479000000000000092e+00 6.000000000000000559e-04
1.399990000000000089e-02 1.366999999999999993e+00 5.565999999999999837e+00 6.999999999999999929e-04
1.499990000000000004e-02 1.413999999999999924e+00 5.644000000000000128e+00 6.999999999999999929e-04
1.599990000000000093e-02 1.461000000000000076e+00 5.716000000000000192e+00 6.999999999999999929e-04
1.699990000000000182e-02 1.506000000000000005e+00 5.782000000000000028e+00 8.000000000000000383e-04
1.799989999999999923e-02 1.548999999999999932e+00 5.842999999999999972e+00 8.000000000000000383e-04
1.999990000000000101e-02 1.633000000000000007e+00 5.950999999999999623e+00 9.000000000000000838e-04
2.249989999999999976e-02 1.731999999999999984e+00 6.065000000000000391e+00 9.000000000000000838e-04
2.499990000000000198e-02 1.826000000000000068e+00 6.160999999999999588e+00 1.000000000000000021e-03
2.749990000000000073e-02 1.915000000000000036e+00 6.240999999999999659e+00 1.100000000000000066e-03
2.999989999999999948e-02 2.000000000000000000e+00 6.309999999999999609e+00 1.200000000000000112e-03
3.249989999999999823e-02 2.081999999999999851e+00 6.368000000000000327e+00 1.200000000000000112e-03
3.499990000000000046e-02 2.161000000000000032e+00 6.416999999999999815e+00 1.300000000000000157e-03
3.749989999999999574e-02 2.236000000000000210e+00 6.459999999999999964e+00 1.399999999999999986e-03
3.999989999999999796e-02 2.310000000000000053e+00 6.496000000000000441e+00 1.399999999999999986e-03
4.499989999999999546e-02 2.450000000000000178e+00 6.552999999999999936e+00 1.600000000000000077e-03
4.999989999999999990e-02 2.581999999999999851e+00 6.594999999999999751e+00 1.700000000000000122e-03
5.499989999999999740e-02 2.709000000000000075e+00 6.623999999999999666e+00 1.800000000000000168e-03
5.999989999999999490e-02 2.829000000000000181e+00 6.642999999999999794e+00 2.000000000000000042e-03
6.499989999999999934e-02 2.943999999999999950e+00 6.653999999999999915e+00 2.100000000000000304e-03
6.999990000000000379e-02 3.056000000000000050e+00 6.658999999999999808e+00 2.200000000000000133e-03
7.999989999999999879e-02 3.266999999999999904e+00 6.653999999999999915e+00 2.500000000000000052e-03
8.999989999999999379e-02 3.464999999999999858e+00 6.636000000000000121e+00 2.799999999999999972e-03
9.999990000000000268e-02 3.652000000000000135e+00 6.607999999999999652e+00 3.000000000000000062e-03
1.100000000000000006e-01 3.830000000000000071e+00 6.573000000000000398e+00 3.299999999999999982e-03
1.199999999999999956e-01 4.001000000000000334e+00 6.533999999999999808e+00 3.500000000000000073e-03
1.300000000000000044e-01 4.163999999999999702e+00 6.491999999999999993e+00 3.799999999999999992e-03
1.399989999999999846e-01 4.320999999999999730e+00 6.447000000000000064e+00 4.000000000000000083e-03
1.499989999999999934e-01 4.472999999999999865e+00 6.400999999999999801e+00 4.300000000000000003e-03
1.599990000000000023e-01 4.620000000000000107e+00 6.354000000000000092e+00 4.500000000000000527e-03
1.699990000000000112e-01 4.761999999999999567e+00 6.307000000000000384e+00 4.800000000000000447e-03
1.799989999999999923e-01 4.900000000000000355e+00 6.259000000000000341e+00 5.000000000000000104e-03
1.999990000000000101e-01 5.165000000000000036e+00 6.163999999999999702e+00 5.599999999999999943e-03
2.249990000000000046e-01 5.477999999999999758e+00 6.048000000000000043e+00 6.200000000000000649e-03
2.499989999999999990e-01 5.775000000000000355e+00 5.934999999999999609e+00 6.800000000000000488e-03
2.749990000000000490e-01 6.056000000000000050e+00 5.826999999999999957e+00 7.500000000000000590e-03
2.999990000000000157e-01 6.325999999999999623e+00 5.722999999999999865e+00 8.099999999999999561e-03
3.249990000000000379e-01 6.583999999999999631e+00 5.623000000000000220e+00 8.800000000000000530e-03
3.499990000000000046e-01 6.833000000000000185e+00 5.527000000000000135e+00 9.400000000000000369e-03
3.749990000000000268e-01 7.072000000000000064e+00 5.435999999999999943e+00 1.010000000000000134e-02
3.999990000000000490e-01 7.304000000000000270e+00 5.347999999999999865e+00 1.070000000000000118e-02
4.499990000000000379e-01 7.746999999999999886e+00 5.182999999999999829e+00 1.210000000000000138e-02
4.999990000000000268e-01 8.166999999999999815e+00 5.030999999999999694e+00 1.340000000000000045e-02
5.499990000000000157e-01 8.564999999999999503e+00 4.891000000000000014e+00 1.470000000000000126e-02
5.999990000000000601e-01 8.945999999999999730e+00 4.759999999999999787e+00 1.609999999999999973e-02
6.499989999999999934e-01 9.310999999999999943e+00 4.637999999999999901e+00 1.740000000000000227e-02
6.999990000000000379e-01 9.663000000000000256e+00 4.525000000000000355e+00 1.880000000000000074e-02
7.999990000000000157e-01 1.033000000000000007e+01 4.317999999999999616e+00 2.150000000000000175e-02
8.999989999999999934e-01 1.096000000000000085e+01 4.134000000000000341e+00 2.420000000000000276e-02
9.999990000000000823e-01 1.155000000000000071e+01 3.968999999999999861e+00 2.699999999999999969e-02
1.100000000000000089e+00 1.210999999999999943e+01 3.821000000000000174e+00 2.980000000000000010e-02
1.199999999999999956e+00 1.265000000000000036e+01 3.685999999999999943e+00 3.260000000000000397e-02
1.300000000000000044e+00 1.316999999999999993e+01 3.561999999999999833e+00 3.530000000000000498e-02
1.399999999999999911e+00 1.366999999999999993e+01 3.448999999999999844e+00 3.810000000000000192e-02
1.500000000000000000e+00 1.414000000000000057e+01 3.343999999999999861e+00 4.089999999999999886e-02
1.600000000000000089e+00 1.460999999999999943e+01 3.246999999999999886e+00 4.370000000000000273e-02
1.699999999999999956e+00 1.506000000000000050e+01 3.157000000000000028e+00 4.649999999999999967e-02
1.800000000000000044e+00 1.550000000000000000e+01 3.072000000000000064e+00 4.930000000000000354e-02
2.000000000000000000e+00 1.632999999999999829e+01 2.919000000000000039e+00 5.490000000000000435e-02
2.250000000000000000e+00 1.719000000000000128e+01 2.753000000000000114e+00 6.190000000000000363e-02
2.500000000000000000e+00 1.798999999999999844e+01 2.607000000000000206e+00 6.890000000000000291e-02
2.750000000000000000e+00 1.875000000000000000e+01 2.479000000000000092e+00 7.590000000000000913e-02
3.000000000000000000e+00 1.946999999999999886e+01 2.366000000000000103e+00 8.279999999999999860e-02
3.250000000000000000e+00 2.014999999999999858e+01 2.263999999999999790e+00 8.980000000000000482e-02
3.500000000000000000e+00 2.080999999999999872e+01 2.172000000000000153e+00 9.670000000000000817e-02
3.750000000000000000e+00 2.144000000000000128e+01 2.088000000000000078e+00 1.036000000000000115e-01
4.000000000000000000e+00 2.205000000000000071e+01 2.012000000000000011e+00 1.104000000000000120e-01
4.500000000000000000e+00 2.323999999999999844e+01 1.877999999999999892e+00 1.239999999999999991e-01
5.000000000000000000e+00 2.439000000000000057e+01 1.762999999999999901e+00 1.373999999999999944e-01
5.500000000000000000e+00 2.551000000000000156e+01 1.663999999999999924e+00 1.506000000000000116e-01
6.000000000000000000e+00 2.658999999999999986e+01 1.576000000000000068e+00 1.635999999999999954e-01
6.500000000000000000e+00 2.764000000000000057e+01 1.499000000000000110e+00 1.764000000000000012e-01
7.000000000000000000e+00 2.866000000000000014e+01 1.429999999999999938e+00 1.890000000000000013e-01
8.000000000000000000e+00 3.060999999999999943e+01 1.312000000000000055e+00 2.137000000000000011e-01
9.000000000000000000e+00 3.245000000000000284e+01 1.213999999999999968e+00 2.375000000000000167e-01
1.000000000000000000e+01 3.417999999999999972e+01 1.131999999999999895e+00 2.606999999999999873e-01
1.100000000000000000e+01 3.582000000000000028e+01 1.060999999999999943e+00 2.832000000000000073e-01
1.200000000000000000e+01 3.738000000000000256e+01 9.997000000000000330e-01 3.052000000000000268e-01
1.300000000000000000e+01 3.885000000000000142e+01 9.458999999999999631e-01 3.266000000000000014e-01
1.400000000000000000e+01 4.025000000000000000e+01 8.982999999999999874e-01 3.475000000000000311e-01
1.500000000000000000e+01 4.159000000000000341e+01 8.558999999999999941e-01 3.679999999999999938e-01
1.600000000000000000e+01 4.285999999999999943e+01 8.176999999999999824e-01 3.880000000000000115e-01
1.700000000000000000e+01 4.407000000000000028e+01 7.832000000000000073e-01 4.077000000000000068e-01
1.800000000000000000e+01 4.522999999999999687e+01 7.518000000000000238e-01 4.270000000000000462e-01
2.000000000000000000e+01 4.739000000000000057e+01 6.966999999999999860e-01 4.646000000000000130e-01
2.250000000000000000e+01 4.984000000000000341e+01 6.393999999999999684e-01 5.100999999999999979e-01
2.500000000000000000e+01 5.203000000000000114e+01 5.917000000000000037e-01 5.540000000000000480e-01
2.750000000000000000e+01 5.400000000000000000e+01 5.513000000000000123e-01 5.967000000000000082e-01
3.000000000000000000e+01 5.575999999999999801e+01 5.165999999999999481e-01 6.381999999999999895e-01
3.250000000000000000e+01 5.734000000000000341e+01 4.863999999999999990e-01 6.789000000000000590e-01
3.500000000000000000e+01 5.875000000000000000e+01 4.597999999999999865e-01 7.187000000000000055e-01
3.750000000000000000e+01 6.000999999999999801e+01 4.363000000000000211e-01 7.579000000000000181e-01
4.000000000000000000e+01 6.114000000000000057e+01 4.153000000000000025e-01 7.963999999999999968e-01
4.500000000000000000e+01 6.302000000000000313e+01 3.794000000000000150e-01 8.720999999999999863e-01
5.000000000000000000e+01 6.448000000000000398e+01 3.496000000000000218e-01 9.463000000000000300e-01
5.500000000000000000e+01 6.557999999999999829e+01 3.245999999999999996e-01 1.020000000000000018e+00
6.000000000000000000e+01 6.637000000000000455e+01 3.032000000000000250e-01 1.090000000000000080e+00
6.500000000000000000e+01 6.690000000000000568e+01 2.847000000000000086e-01 1.159999999999999920e+00
7.000000000000000000e+01 6.720999999999999375e+01 2.685000000000000164e-01 1.239999999999999991e+00
8.000000000000000000e+01 6.729000000000000625e+01 2.414999999999999925e-01 1.379999999999999893e+00
9.000000000000000000e+01 6.682999999999999829e+01 2.197999999999999954e-01 1.520000000000000018e+00
1.000000000000000000e+02 6.598999999999999488e+01 2.018999999999999961e-01 1.669999999999999929e+00
1.100000000000000000e+02 6.487999999999999545e+01 1.869000000000000106e-01 1.820000000000000062e+00
1.200000000000000000e+02 6.360999999999999943e+01 1.741999999999999937e-01 1.969999999999999973e+00
1.300000000000000000e+02 6.222999999999999687e+01 1.632000000000000117e-01 2.129999999999999893e+00
1.400000000000000000e+02 6.079999999999999716e+01 1.535999999999999865e-01 2.290000000000000036e+00
1.500000000000000000e+02 5.934000000000000341e+01 1.451999999999999957e-01 2.450000000000000178e+00
1.600000000000000000e+02 5.789999999999999858e+01 1.376999999999999891e-01 2.620000000000000107e+00
1.700000000000000000e+02 5.647999999999999687e+01 1.310000000000000053e-01 2.790000000000000036e+00
1.800000000000000000e+02 5.509000000000000341e+01 1.250000000000000000e-01 2.959999999999999964e+00
2.000000000000000000e+02 5.246000000000000085e+01 1.145000000000000046e-01 3.330000000000000071e+00
2.250000000000000000e+02 4.946000000000000085e+01 1.038000000000000034e-01 3.810000000000000053e+00
2.500000000000000000e+02 4.677000000000000313e+01 9.511000000000000010e-02 4.330000000000000071e+00
2.750000000000000000e+02 4.439000000000000057e+01 8.781999999999999529e-02 4.870000000000000107e+00
3.000000000000000000e+02 4.228000000000000114e+01 8.162999999999999423e-02 5.440000000000000391e+00
3.250000000000000000e+02 4.039000000000000057e+01 7.631999999999999895e-02 6.040000000000000036e+00
3.500000000000000000e+02 3.870000000000000284e+01 7.169000000000000372e-02 6.660000000000000142e+00
3.750000000000000000e+02 3.718999999999999773e+01 6.762999999999999567e-02 7.309999999999999609e+00
4.000000000000000000e+02 3.582999999999999829e+01 6.403999999999999970e-02 7.990000000000000213e+00
4.500000000000000000e+02 3.349000000000000199e+01 5.793999999999999845e-02 9.419999999999999929e+00
5.000000000000000000e+02 3.155999999999999872e+01 5.297000000000000319e-02 1.093999999999999950e+01
5.500000000000000000e+02 2.996000000000000085e+01 4.882999999999999841e-02 1.255000000000000071e+01
6.000000000000000000e+02 2.864000000000000057e+01 4.533000000000000224e-02 1.424000000000000021e+01
6.500000000000000000e+02 2.755999999999999872e+01 4.232000000000000345e-02 1.601000000000000156e+01
7.000000000000000000e+02 2.669000000000000128e+01 3.971000000000000224e-02 1.783999999999999986e+01
8.000000000000000000e+02 2.548000000000000043e+01 3.540000000000000091e-02 2.164000000000000057e+01
9.000000000000000000e+02 2.487999999999999901e+01 3.196999999999999842e-02 2.557999999999999829e+01
1.000000000000000000e+03 2.476999999999999957e+01 2.919000000000000067e-02 2.957999999999999829e+01
1.100000000000000000e+03 2.535999999999999943e+01 2.687000000000000152e-02 3.353999999999999915e+01
1.200000000000000000e+03 2.596999999999999886e+01 2.491000000000000159e-02 3.740999999999999659e+01
1.300000000000000000e+03 2.623999999999999844e+01 2.324000000000000024e-02 4.121000000000000085e+01
1.400000000000000000e+03 2.632999999999999829e+01 2.178000000000000075e-02 4.499000000000000199e+01
1.500000000000000000e+03 2.623000000000000043e+01 2.051000000000000045e-02 4.878000000000000114e+01
1.600000000000000000e+03 2.592999999999999972e+01 1.939000000000000098e-02 5.259000000000000341e+01
1.700000000000000000e+03 2.548000000000000043e+01 1.838000000000000050e-02 5.646000000000000085e+01
1.800000000000000000e+03 2.491000000000000014e+01 1.748999999999999860e-02 6.040999999999999659e+01
2.000000000000000000e+03 2.362000000000000099e+01 1.593999999999999931e-02 6.862000000000000455e+01
2.250000000000000000e+03 2.196999999999999886e+01 1.437000000000000083e-02 7.954999999999999716e+01
2.500000000000000000e+03 2.044000000000000128e+01 1.310000000000000053e-02 9.129999999999999716e+01
2.750000000000000000e+03 1.908999999999999986e+01 1.204000000000000035e-02 1.039099999999999966e+02
3.000000000000000000e+03 1.789999999999999858e+01 1.115000000000000019e-02 1.173900000000000006e+02
3.250000000000000000e+03 1.685999999999999943e+01 1.038999999999999993e-02 1.317299999999999898e+02
3.500000000000000000e+03 1.593999999999999950e+01 9.730000000000000801e-03 1.469300000000000068e+02
3.750000000000000000e+03 1.511999999999999922e+01 9.152999999999999678e-03 1.629799999999999898e+02
4.000000000000000000e+03 1.440000000000000036e+01 8.642999999999999641e-03 1.798700000000000045e+02
4.500000000000000000e+03 1.315000000000000036e+01 7.784000000000000120e-03 2.161200000000000045e+02
5.000000000000000000e+03 1.211999999999999922e+01 7.087999999999999683e-03 2.556200000000000045e+02
5.500000000000000000e+03 1.125000000000000000e+01 6.510000000000000162e-03 2.983199999999999932e+02
6.000000000000000000e+03 1.050999999999999979e+01 6.023999999999999841e-03 3.441800000000000068e+02
6.500000000000000000e+03 9.871000000000000441e+00 5.608000000000000138e-03 3.931299999999999955e+02
7.000000000000000000e+03 9.311999999999999389e+00 5.249000000000000193e-03 4.451499999999999773e+02
8.000000000000000000e+03 8.378999999999999559e+00 4.656999999999999681e-03 5.580900000000000318e+02
9.000000000000000000e+03 7.631000000000000227e+00 4.190000000000000148e-03 6.828500000000000227e+02
1.000000000000000000e+04 7.016000000000000014e+00 3.811999999999999850e-03 8.192100000000000364e+02
1.100000000000000000e+04 6.501000000000000334e+00 3.498999999999999940e-03 9.669299999999999500e+02
1.200000000000000000e+04 6.062999999999999723e+00 3.236000000000000161e-03 1.130000000000000000e+03
1.300000000000000000e+04 5.684999999999999609e+00 3.010000000000000089e-03 1.300000000000000000e+03
1.400000000000000000e+04 5.355999999999999872e+00 2.815999999999999927e-03 1.480000000000000000e+03
1.500000000000000000e+04 5.065999999999999837e+00 2.645999999999999915e-03 1.670000000000000000e+03
1.600000000000000000e+04 4.809000000000000163e+00 2.495999999999999955e-03 1.870000000000000000e+03
1.700000000000000000e+04 4.580000000000000071e+00 2.363000000000000083e-03 2.080000000000000000e+03
1.800000000000000000e+04 4.373000000000000220e+00 2.243999999999999901e-03 2.310000000000000000e+03
2.000000000000000000e+04 4.016000000000000014e+00 2.040000000000000147e-03 2.780000000000000000e+03
2.250000000000000000e+04 3.650999999999999801e+00 1.833999999999999910e-03 3.430000000000000000e+03
2.500000000000000000e+04 3.353000000000000203e+00 1.665999999999999946e-03 4.150000000000000000e+03
2.750000000000000000e+04 3.104999999999999982e+00 1.528000000000000061e-03 4.920000000000000000e+03
3.000000000000000000e+04 2.895000000000000018e+00 1.412000000000000061e-03 5.750000000000000000e+03
3.250000000000000000e+04 2.713999999999999968e+00 1.312999999999999931e-03 6.640000000000000000e+03
3.500000000000000000e+04 2.556999999999999940e+00 1.227000000000000009e-03 7.590000000000000000e+03
3.750000000000000000e+04 2.419000000000000039e+00 1.152999999999999945e-03 8.590000000000000000e+03
4.000000000000000000e+04 2.298000000000000043e+00 1.087000000000000076e-03 9.650000000000000000e+03
