# Energy(keV)  dEe/dx(keV/micro_m)  dEn/dx(keV/micro_m)  x(micro_m)
1.100000000000000066e-03 4.794999999999999818e-01 8.330000000000000071e+00 2.000000000000000096e-04
1.199999999999999895e-03 4.794999999999999818e-01 8.821999999999999176e+00 2.000000000000000096e-04
1.300000000000000157e-03 4.990999999999999881e-01 9.300000000000000711e+00 2.000000000000000096e-04
1.399999999999999986e-03 5.179000000000000270e-01 9.763999999999999346e+00 2.000000000000000096e-04
1.500000000000000031e-03 5.361000000000000210e-01 1.022000000000000064e+01 2.000000000000000096e-04
1.600000000000000077e-03 5.536999999999999700e-01 1.066000000000000014e+01 2.000000000000000096e-04
1.699999999999999905e-03 5.706999999999999851e-01 1.108000000000000007e+01 2.000000000000000096e-04
1.800000000000000168e-03 5.873000000000000442e-01 1.150000000000000000e+01 2.000000000000000096e-04
2.000000000000000042e-03 6.190999999999999837e-01 1.232000000000000028e+01 2.000000000000000096e-04
2.250000000000000264e-03 6.565999999999999615e-01 1.328999999999999915e+01 3.000000000000000279e-04
2.499990000000000111e-03 6.921000000000000485e-01 1.422000000000000064e+01 3.000000000000000279e-04
2.749989999999999900e-03 7.258999999999999897e-01 1.510999999999999943e+01 3.000000000000000279e-04
2.999990000000000122e-03 7.581999999999999851e-01 1.597000000000000064e+01 3.000000000000000279e-04
3.249989999999999910e-03 7.892000000000000126e-01 1.680999999999999872e+01 3.000000000000000279e-04
3.499990000000000132e-03 8.188999999999999613e-01 1.760999999999999943e+01 3.000000000000000279e-04
3.749989999999999921e-03 8.477000000000000091e-01 1.839000000000000057e+01 3.000000000000000279e-04
3.999990000000000143e-03 8.754999999999999449e-01 1.914999999999999858e+01 3.000000000000000279e-04
4.499990000000000587e-03 9.285999999999999810e-01 2.062000000000000099e+01 3.000000000000000279e-04
4.999990000000000163e-03 9.788000000000000034e-01 2.201000000000000156e+01 4.000000000000000192e-04
5.499990000000000608e-03 1.026999999999999913e+00 2.335000000000000142e+01 4.000000000000000192e-04
5.999990000000000184e-03 1.072000000000000064e+00 2.464000000000000057e+01 4.000000000000000192e-04
6.499990000000000628e-03 1.116000000000000103e+00 2.587999999999999901e+01 4.000000000000000192e-04
6.999990000000000205e-03 1.157999999999999918e+00 2.707000000000000028e+01 4.000000000000000192e-04
7.999990000000000226e-03 1.237999999999999989e+00 2.935999999999999943e+01 4.000000000000000192e-04
8.999990000000001114e-03 1.312999999999999945e+00 3.151999999999999957e+01 4.000000000000000192e-04
9.999990000000000268e-03 1.383999999999999897e+00 3.357000000000000028e+01 5.000000000000000104e-04
1.099989999999999996e-02 1.451999999999999957e+00 3.553000000000000114e+01 5.000000000000000104e-04
1.199990000000000084e-02 1.516000000000000014e+00 3.740999999999999659e+01 5.000000000000000104e-04
1.299990000000000000e-02 1.578000000000000069e+00 3.921999999999999886e+01 5.000000000000000104e-04
1.399990000000000089e-02 1.637999999999999901e+00 4.096000000000000085e+01 5.000000000000000104e-04
1.499990000000000004e-02 1.695000000000000062e+00 4.264999999999999858e+01 5.000000000000000104e-04
1.599990000000000093e-02 1.750999999999999890e+00 4.428000000000000114e+01 6.000000000000000559e-04
1.699990000000000182e-02 1.804999999999999938e+00 4.585999999999999943e+01 6.000000000000000559e-04
1.799989999999999923e-02 1.856999999999999984e+00 4.739000000000000057e+01 6.000000000000000559e-04
1.999990000000000101e-02 1.957999999999999963e+00 5.034000000000000341e+01 6.000000000000000559e-04
2.249989999999999976e-02 2.076000000000000068e+00 5.382999999999999829e+01 6.000000000000000559e-04
2.499990000000000198e-02 2.189000000000000057e+00 5.713000000000000256e+01 6.999999999999999929e-04
2.749990000000000073e-02 2.295999999999999819e+00 6.025999999999999801e+01 6.999999999999999929e-04
2.999989999999999948e-02 2.398000000000000131e+00 6.324000000000000199e+01 6.999999999999999929e-04
3.249989999999999823e-02 2.495999999999999996e+00 6.609999999999999432e+01 6.999999999999999929e-04
3.499990000000000046e-02 2.589999999999999858e+00 6.884000000000000341e+01 8.000000000000000383e-04
3.749989999999999574e-02 2.681000000000000050e+00 7.148000000000000398e+01 8.000000000000000383e-04
3.999989999999999796e-02 2.769000000000000128e+00 7.403000000000000114e+01 8.000000000000000383e-04
4.499989999999999546e-02 2.936999999999999833e+00 7.887000000000000455e+01 8.000000000000000383e-04
4.999989999999999990e-02 3.095000000000000195e+00 8.342000000000000171e+01 9.000000000000000838e-04
5.499989999999999740e-02 3.245999999999999996e+00 8.771999999999999886e+01 9.000000000000000838e-04
5.999989999999999490e-02 3.391000000000000014e+00 9.181000000000000227e+01 9.000000000000000838e-04
6.499989999999999934e-02 3.528999999999999915e+00 9.570000000000000284e+01 1.000000000000000021e-03
6.999990000000000379e-02 3.662999999999999812e+00 9.942000000000000171e+01 1.000000000000000021e-03
7.999989999999999879e-02 3.915000000000000036e+00 1.064000000000000057e+02 1.100000000000000066e-03
8.999989999999999379e-02 4.152999999999999581e+00 1.129000000000000057e+02 1.100000000000000066e-03
9.999990000000000268e-02 4.378000000000000114e+00 1.189000000000000057e+02 1.200000000000000112e-03
1.100000000000000006e-01 4.591000000000000192e+00 1.245999999999999943e+02 1.200000000000000112e-03
1.199999999999999956e-01 4.794999999999999929e+00 1.300000000000000000e+02 1.300000000000000157e-03
1.300000000000000044e-01 4.990999999999999659e+00 1.350999999999999943e+02 1.300000000000000157e-03
1.399989999999999846e-01 5.179999999999999716e+00 1.399000000000000057e+02 1.399999999999999986e-03
1.499989999999999934e-01 5.362000000000000099e+00 1.445000000000000000e+02 1.399999999999999986e-03
1.599990000000000023e-01 5.536999999999999922e+00 1.489000000000000057e+02 1.500000000000000031e-03
1.699990000000000112e-01 5.708000000000000185e+00 1.531999999999999886e+02 1.500000000000000031e-03
1.799989999999999923e-01 5.873000000000000220e+00 1.571999999999999886e+02 1.600000000000000077e-03
1.999990000000000101e-01 6.190999999999999837e+00 1.649000000000000057e+02 1.600000000000000077e-03
2.249990000000000046e-01 6.567000000000000171e+00 1.738000000000000114e+02 1.700000000000000122e-03
2.499989999999999990e-01 6.921999999999999709e+00 1.820000000000000000e+02 1.800000000000000168e-03
2.749990000000000490e-01 7.259999999999999787e+00 1.895999999999999943e+02 1.899999999999999996e-03
2.999990000000000157e-01 7.581999999999999851e+00 1.966999999999999886e+02 2.000000000000000042e-03
3.249990000000000379e-01 7.892000000000000348e+00 2.034000000000000057e+02 2.100000000000000304e-03
3.499990000000000046e-01 8.189999999999999503e+00 2.096999999999999886e+02 2.200000000000000133e-03
3.749990000000000268e-01 8.477999999999999758e+00 2.155999999999999943e+02 2.299999999999999961e-03
3.999990000000000490e-01 8.756000000000000227e+00 2.213000000000000114e+02 2.299999999999999961e-03
4.499990000000000379e-01 9.287000000000000810e+00 2.318000000000000114e+02 2.500000000000000052e-03
4.999990000000000268e-01 9.788999999999999702e+00 2.414000000000000057e+02 2.600000000000000314e-03
5.499990000000000157e-01 1.026999999999999957e+01 2.501999999999999886e+02 2.799999999999999972e-03
5.999990000000000601e-01 1.072000000000000064e+01 2.583999999999999773e+02 2.900000000000000234e-03
6.499989999999999934e-01 1.116000000000000014e+01 2.660000000000000000e+02 3.000000000000000062e-03
6.999990000000000379e-01 1.158000000000000007e+01 2.731000000000000227e+02 3.200000000000000153e-03
7.999990000000000157e-01 1.238000000000000078e+01 2.861000000000000227e+02 3.400000000000000244e-03
8.999989999999999934e-01 1.313000000000000078e+01 2.976000000000000227e+02 3.600000000000000335e-03
9.999990000000000823e-01 1.383999999999999986e+01 3.081000000000000227e+02 3.900000000000000255e-03
1.100000000000000089e+00 1.451999999999999957e+01 3.175000000000000000e+02 4.100000000000000346e-03
1.199999999999999956e+00 1.516999999999999993e+01 3.261000000000000227e+02 4.300000000000000003e-03
1.300000000000000044e+00 1.578999999999999915e+01 3.341000000000000227e+02 4.500000000000000527e-03
1.399999999999999911e+00 1.637999999999999901e+01 3.413999999999999773e+02 4.700000000000000185e-03
1.500000000000000000e+00 1.696000000000000085e+01 3.483000000000000114e+02 4.899999999999999842e-03
1.600000000000000089e+00 1.751000000000000156e+01 3.546000000000000227e+02 5.100000000000000366e-03
1.699999999999999956e+00 1.805000000000000071e+01 3.606000000000000227e+02 5.300000000000000024e-03
1.800000000000000044e+00 1.857999999999999829e+01 3.661000000000000227e+02 5.500000000000000548e-03
2.000000000000000000e+00 1.957999999999999829e+01 3.763000000000000114e+02 5.899999999999999863e-03
2.250000000000000000e+00 2.076999999999999957e+01 3.875000000000000000e+02 6.400000000000000307e-03
2.500000000000000000e+00 2.189000000000000057e+01 3.973000000000000114e+02 6.800000000000000488e-03
2.750000000000000000e+00 2.296000000000000085e+01 4.060000000000000000e+02 7.300000000000000065e-03
3.000000000000000000e+00 2.398000000000000043e+01 4.136999999999999886e+02 7.700000000000000247e-03
3.250000000000000000e+00 2.496000000000000085e+01 4.206000000000000227e+02 8.200000000000000691e-03
3.500000000000000000e+00 2.589999999999999858e+01 4.268999999999999773e+02 8.600000000000000006e-03
3.750000000000000000e+00 2.680999999999999872e+01 4.325000000000000000e+02 9.000000000000001055e-03
4.000000000000000000e+00 2.769000000000000128e+01 4.376999999999999886e+02 9.400000000000000369e-03
4.500000000000000000e+00 2.937000000000000099e+01 4.466000000000000227e+02 1.020000000000000073e-02
5.000000000000000000e+00 3.096000000000000085e+01 4.541999999999999886e+02 1.110000000000000049e-02
5.500000000000000000e+00 3.246999999999999886e+01 4.606000000000000227e+02 1.190000000000000085e-02
6.000000000000000000e+00 3.392000000000000171e+01 4.660000000000000000e+02 1.260000000000000009e-02
6.500000000000000000e+00 3.529999999999999716e+01 4.706999999999999886e+02 1.340000000000000045e-02
7.000000000000000000e+00 3.664000000000000057e+01 4.746000000000000227e+02 1.420000000000000082e-02
8.000000000000000000e+00 3.917000000000000171e+01 4.810000000000000000e+02 1.570000000000000215e-02
9.000000000000000000e+00 4.154999999999999716e+01 4.856999999999999886e+02 1.729999999999999941e-02
1.000000000000000000e+01 4.378999999999999915e+01 4.891000000000000227e+02 1.880000000000000074e-02
1.100000000000000000e+01 4.592999999999999972e+01 4.915000000000000000e+02 2.030000000000000207e-02
1.200000000000000000e+01 4.797999999999999687e+01 4.931000000000000227e+02 2.179999999999999993e-02
1.300000000000000000e+01 4.993999999999999773e+01 4.940000000000000000e+02 2.330000000000000127e-02
1.400000000000000000e+01 5.182000000000000028e+01 4.943999999999999773e+02 2.480000000000000260e-02
1.500000000000000000e+01 5.364000000000000057e+01 4.943999999999999773e+02 2.630000000000000046e-02
1.600000000000000000e+01 5.539999999999999858e+01 4.940000000000000000e+02 2.770000000000000240e-02
1.700000000000000000e+01 5.710999999999999943e+01 4.933999999999999773e+02 2.920000000000000026e-02
1.800000000000000000e+01 5.877000000000000313e+01 4.923999999999999773e+02 3.070000000000000159e-02
2.000000000000000000e+01 6.195000000000000284e+01 4.900000000000000000e+02 3.370000000000000079e-02
2.250000000000000000e+01 6.570999999999999375e+01 4.861999999999999886e+02 3.749999999999999861e-02
2.500000000000000000e+01 6.926999999999999602e+01 4.816999999999999886e+02 4.120000000000000051e-02
2.750000000000000000e+01 7.265000000000000568e+01 4.768999999999999773e+02 4.500000000000000527e-02
3.000000000000000000e+01 7.587999999999999545e+01 4.716999999999999886e+02 4.889999999999999902e-02
3.250000000000000000e+01 7.898999999999999488e+01 4.665000000000000000e+02 5.270000000000000379e-02
3.500000000000000000e+01 8.196999999999999886e+01 4.611000000000000227e+02 5.660000000000000447e-02
3.750000000000000000e+01 8.484999999999999432e+01 4.558000000000000114e+02 6.050000000000000516e-02
4.000000000000000000e+01 8.764000000000000057e+01 4.503999999999999773e+02 6.439999999999999891e-02
4.500000000000000000e+01 9.295999999999999375e+01 4.398999999999999773e+02 7.240000000000000602e-02
5.000000000000000000e+01 9.798999999999999488e+01 4.296999999999999886e+02 8.050000000000000211e-02
5.500000000000000000e+01 1.027999999999999972e+02 4.198000000000000114e+02 8.870000000000000107e-02
6.000000000000000000e+01 1.074000000000000057e+02 4.103000000000000114e+02 9.700000000000000289e-02
6.500000000000000000e+01 1.115999999999999943e+02 4.013000000000000114e+02 1.054000000000000076e-01
7.000000000000000000e+01 1.149000000000000057e+02 3.926000000000000227e+02 1.139000000000000012e-01
8.000000000000000000e+01 1.207999999999999972e+02 3.763999999999999773e+02 1.312000000000000111e-01
9.000000000000000000e+01 1.260000000000000000e+02 3.616999999999999886e+02 1.489999999999999936e-01
1.000000000000000000e+02 1.305999999999999943e+02 3.481999999999999886e+02 1.672000000000000153e-01
1.100000000000000000e+02 1.350000000000000000e+02 3.358000000000000114e+02 1.858000000000000207e-01
1.200000000000000000e+02 1.390000000000000000e+02 3.243999999999999773e+02 2.048000000000000098e-01
1.300000000000000000e+02 1.430000000000000000e+02 3.138000000000000114e+02 2.241000000000000214e-01
1.400000000000000000e+02 1.468000000000000114e+02 3.041000000000000227e+02 2.437000000000000000e-01
1.500000000000000000e+02 1.505999999999999943e+02 2.950000000000000000e+02 2.636000000000000010e-01
1.600000000000000000e+02 1.544000000000000057e+02 2.866000000000000227e+02 2.837999999999999967e-01
1.700000000000000000e+02 1.580999999999999943e+02 2.786999999999999886e+02 3.043000000000000149e-01
1.800000000000000000e+02 1.619000000000000057e+02 2.713000000000000114e+02 3.249000000000000221e-01
2.000000000000000000e+02 1.694000000000000057e+02 2.578000000000000114e+02 3.668000000000000149e-01
2.250000000000000000e+02 1.790000000000000000e+02 2.430000000000000000e+02 4.201000000000000290e-01
2.500000000000000000e+02 1.886999999999999886e+02 2.300000000000000000e+02 4.741000000000000214e-01
2.750000000000000000e+02 1.985999999999999943e+02 2.185999999999999943e+02 5.285000000000000808e-01
3.000000000000000000e+02 2.085999999999999943e+02 2.085000000000000000e+02 5.833000000000000407e-01
3.250000000000000000e+02 2.185999999999999943e+02 1.994000000000000057e+02 6.381000000000000005e-01
3.500000000000000000e+02 2.285999999999999943e+02 1.910999999999999943e+02 6.929000000000000714e-01
3.750000000000000000e+02 2.386999999999999886e+02 1.836999999999999886e+02 7.476000000000000423e-01
4.000000000000000000e+02 2.486999999999999886e+02 1.768000000000000114e+02 8.020000000000000462e-01
4.500000000000000000e+02 2.686999999999999886e+02 1.648000000000000114e+02 9.097000000000000641e-01
5.000000000000000000e+02 2.883999999999999773e+02 1.545000000000000000e+02 1.020000000000000018e+00
5.500000000000000000e+02 3.078000000000000114e+02 1.456999999999999886e+02 1.120000000000000107e+00
6.000000000000000000e+02 3.266999999999999886e+02 1.379000000000000057e+02 1.219999999999999973e+00
6.500000000000000000e+02 3.453000000000000114e+02 1.310000000000000000e+02 1.320000000000000062e+00
7.000000000000000000e+02 3.635000000000000000e+02 1.247999999999999972e+02 1.419999999999999929e+00
8.000000000000000000e+02 3.986000000000000227e+02 1.142999999999999972e+02 1.610000000000000098e+00
9.000000000000000000e+02 4.323000000000000114e+02 1.055999999999999943e+02 1.790000000000000036e+00
1.000000000000000000e+03 4.646000000000000227e+02 9.829999999999999716e+01 1.959999999999999964e+00
1.100000000000000000e+03 4.958000000000000114e+02 9.204999999999999716e+01 2.129999999999999893e+00
1.200000000000000000e+03 5.258999999999999773e+02 8.662999999999999545e+01 2.290000000000000036e+00
1.300000000000000000e+03 5.552000000000000455e+02 8.189000000000000057e+01 2.439999999999999947e+00
1.400000000000000000e+03 5.837000000000000455e+02 7.770000000000000284e+01 2.589999999999999858e+00
1.500000000000000000e+03 6.117000000000000455e+02 7.395999999999999375e+01 2.740000000000000213e+00
1.600000000000000000e+03 6.391000000000000227e+02 7.059999999999999432e+01 2.870000000000000107e+00
1.700000000000000000e+03 6.660000000000000000e+02 6.756999999999999318e+01 3.009999999999999787e+00
1.800000000000000000e+03 6.926000000000000227e+02 6.481999999999999318e+01 3.140000000000000124e+00
2.000000000000000000e+03 7.448999999999999773e+02 6.000000000000000000e+01 3.390000000000000124e+00
2.250000000000000000e+03 8.090000000000000000e+02 5.497999999999999687e+01 3.680000000000000160e+00
2.500000000000000000e+03 8.722000000000000455e+02 5.082000000000000028e+01 3.959999999999999964e+00
2.750000000000000000e+03 9.347000000000000455e+02 4.729999999999999716e+01 4.209999999999999964e+00
3.000000000000000000e+03 9.967000000000000455e+02 4.428000000000000114e+01 4.459999999999999964e+00
3.250000000000000000e+03 1.058000000000000000e+03 4.165999999999999659e+01 4.690000000000000391e+00
3.500000000000000000e+03 1.119000000000000000e+03 3.935000000000000142e+01 4.900000000000000355e+00
3.750000000000000000e+03 1.180000000000000000e+03 3.732000000000000028e+01 5.110000000000000320e+00
4.000000000000000000e+03 1.240000000000000000e+03 3.550000000000000000e+01 5.309999999999999609e+00
4.500000000000000000e+03 1.358000000000000000e+03 3.239000000000000057e+01 5.679999999999999716e+00
5.000000000000000000e+03 1.473000000000000000e+03 2.982000000000000028e+01 6.019999999999999574e+00
5.500000000000000000e+03 1.586000000000000000e+03 2.766000000000000014e+01 6.339999999999999858e+00
6.000000000000000000e+03 1.696000000000000000e+03 2.582000000000000028e+01 6.639999999999999680e+00
6.500000000000000000e+03 1.803000000000000000e+03 2.423000000000000043e+01 6.919999999999999929e+00
7.000000000000000000e+03 1.907000000000000000e+03 2.282999999999999829e+01 7.179999999999999716e+00
8.000000000000000000e+03 2.110000000000000000e+03 2.051000000000000156e+01 7.669999999999999929e+00
9.000000000000000000e+03 2.304000000000000000e+03 1.864999999999999858e+01 8.119999999999999218e+00
1.000000000000000000e+04 2.491000000000000000e+03 1.712000000000000099e+01 8.529999999999999361e+00
1.100000000000000000e+04 2.670000000000000000e+03 1.583999999999999986e+01 8.919999999999999929e+00
1.200000000000000000e+04 2.840000000000000000e+03 1.475000000000000000e+01 9.279999999999999361e+00
1.300000000000000000e+04 2.999000000000000000e+03 1.381000000000000050e+01 9.619999999999999218e+00
1.400000000000000000e+04 3.145000000000000000e+03 1.300000000000000000e+01 9.939999999999999503e+00
1.500000000000000000e+04 3.278000000000000000e+03 1.227999999999999936e+01 1.025000000000000000e+01
1.600000000000000000e+04 3.396000000000000000e+03 1.164000000000000057e+01 1.055000000000000071e+01
1.700000000000000000e+04 3.499000000000000000e+03 1.107000000000000028e+01 1.083999999999999986e+01
1.800000000000000000e+04 3.589000000000000000e+03 1.055000000000000071e+01 1.111999999999999922e+01
2.000000000000000000e+04 3.727000000000000000e+03 9.666000000000000369e+00 1.166000000000000014e+01
2.250000000000000000e+04 3.838000000000000000e+03 8.759000000000000341e+00 1.232000000000000028e+01
2.500000000000000000e+04 3.896000000000000000e+03 8.016999999999999460e+00 1.296000000000000085e+01
2.750000000000000000e+04 3.916000000000000000e+03 7.399000000000000021e+00 1.359999999999999964e+01
3.000000000000000000e+04 3.912000000000000000e+03 6.873999999999999666e+00 1.424000000000000021e+01
3.250000000000000000e+04 3.890000000000000000e+03 6.424000000000000377e+00 1.488000000000000078e+01
3.500000000000000000e+04 3.857000000000000000e+03 6.033000000000000362e+00 1.551999999999999957e+01
3.750000000000000000e+04 3.817000000000000000e+03 5.689000000000000057e+00 1.617000000000000171e+01
4.000000000000000000e+04 3.773000000000000000e+03 5.384999999999999787e+00 1.682999999999999829e+01
