# Energy(keV)  dEe/dx(keV/micro_m)  dEn/dx(keV/micro_m)  x(micro_m)
1.100000000000000066e-03 4.521000000000000019e-01 1.018999999999999950e+01 1.000000000000000048e-04
1.199999999999999895e-03 4.521000000000000019e-01 1.077999999999999936e+01 1.000000000000000048e-04
1.300000000000000157e-03 4.706000000000000183e-01 1.134999999999999964e+01 1.000000000000000048e-04
1.399999999999999986e-03 4.884000000000000008e-01 1.191000000000000014e+01 1.000000000000000048e-04
1.500000000000000031e-03 5.054999999999999494e-01 1.244999999999999929e+01 1.000000000000000048e-04
1.600000000000000077e-03 5.221000000000000085e-01 1.297000000000000064e+01 1.000000000000000048e-04
1.699999999999999905e-03 5.382000000000000117e-01 1.349000000000000021e+01 1.000000000000000048e-04
1.800000000000000168e-03 5.537999999999999590e-01 1.399000000000000021e+01 1.000000000000000048e-04
2.000000000000000042e-03 5.836999999999999966e-01 1.496000000000000085e+01 2.000000000000000096e-04
2.250000000000000264e-03 6.190999999999999837e-01 1.610999999999999943e+01 2.000000000000000096e-04
2.499990000000000111e-03 6.525999999999999579e-01 1.721999999999999886e+01 2.000000000000000096e-04
2.749989999999999900e-03 6.844999999999999973e-01 1.828000000000000114e+01 2.000000000000000096e-04
2.999990000000000122e-03 7.148999999999999799e-01 1.930000000000000071e+01 2.000000000000000096e-04
3.249989999999999910e-03 7.440999999999999837e-01 2.028000000000000114e+01 2.000000000000000096e-04
3.499990000000000132e-03 7.721999999999999975e-01 2.123000000000000043e+01 2.000000000000000096e-04
3.749989999999999921e-03 7.993000000000000105e-01 2.216000000000000014e+01 2.000000000000000096e-04
3.999990000000000143e-03 8.255000000000000115e-01 2.305000000000000071e+01 2.000000000000000096e-04
4.499990000000000587e-03 8.756000000000000449e-01 2.476999999999999957e+01 2.000000000000000096e-04
4.999990000000000163e-03 9.229000000000000536e-01 2.641000000000000014e+01 2.000000000000000096e-04
5.499990000000000608e-03 9.679999999999999716e-01 2.798000000000000043e+01 2.000000000000000096e-04
5.999990000000000184e-03 1.010999999999999899e+00 2.948000000000000043e+01 2.000000000000000096e-04
6.499990000000000628e-03 1.052000000000000046e+00 3.092999999999999972e+01 2.000000000000000096e-04
6.999990000000000205e-03 1.092000000000000082e+00 3.232999999999999829e+01 3.000000000000000279e-04
7.999990000000000226e-03 1.167000000000000037e+00 3.497999999999999687e+01 3.000000000000000279e-04
8.999990000000001114e-03 1.237999999999999989e+00 3.749000000000000199e+01 3.000000000000000279e-04
9.999990000000000268e-03 1.304999999999999938e+00 3.986999999999999744e+01 3.000000000000000279e-04
1.099989999999999996e-02 1.368999999999999995e+00 4.213000000000000256e+01 3.000000000000000279e-04
1.199990000000000084e-02 1.429999999999999938e+00 4.428999999999999915e+01 3.000000000000000279e-04
1.299990000000000000e-02 1.487999999999999989e+00 4.636999999999999744e+01 3.000000000000000279e-04
1.399990000000000089e-02 1.544000000000000039e+00 4.836999999999999744e+01 3.000000000000000279e-04
1.499990000000000004e-02 1.598999999999999977e+00 5.029999999999999716e+01 3.000000000000000279e-04
1.599990000000000093e-02 1.651000000000000023e+00 5.215999999999999659e+01 4.000000000000000192e-04
1.699990000000000182e-02 1.701999999999999957e+00 5.396000000000000085e+01 4.000000000000000192e-04
1.799989999999999923e-02 1.750999999999999890e+00 5.571000000000000085e+01 4.000000000000000192e-04
1.999990000000000101e-02 1.846000000000000085e+00 5.907000000000000028e+01 4.000000000000000192e-04
2.249989999999999976e-02 1.957999999999999963e+00 6.302000000000000313e+01 4.000000000000000192e-04
2.499990000000000198e-02 2.064000000000000057e+00 6.673999999999999488e+01 4.000000000000000192e-04
2.749990000000000073e-02 2.165000000000000036e+00 7.026999999999999602e+01 4.000000000000000192e-04
2.999989999999999948e-02 2.261000000000000121e+00 7.362000000000000455e+01 5.000000000000000104e-04
3.249989999999999823e-02 2.353000000000000203e+00 7.681999999999999318e+01 5.000000000000000104e-04
3.499990000000000046e-02 2.442000000000000171e+00 7.989000000000000057e+01 5.000000000000000104e-04
3.749989999999999574e-02 2.528000000000000025e+00 8.282999999999999829e+01 5.000000000000000104e-04
3.999989999999999796e-02 2.611000000000000210e+00 8.565999999999999659e+01 5.000000000000000104e-04
4.499989999999999546e-02 2.769000000000000128e+00 9.103000000000000114e+01 5.000000000000000104e-04
4.999989999999999990e-02 2.919000000000000039e+00 9.604999999999999716e+01 6.000000000000000559e-04
5.499989999999999740e-02 3.060999999999999943e+00 1.007999999999999972e+02 6.000000000000000559e-04
5.999989999999999490e-02 3.197000000000000064e+00 1.052999999999999972e+02 6.000000000000000559e-04
6.499989999999999934e-02 3.327999999999999847e+00 1.095000000000000000e+02 6.000000000000000559e-04
6.999990000000000379e-02 3.452999999999999847e+00 1.135999999999999943e+02 6.999999999999999929e-04
7.999989999999999879e-02 3.692000000000000171e+00 1.210999999999999943e+02 6.999999999999999929e-04
8.999989999999999379e-02 3.915999999999999925e+00 1.280999999999999943e+02 8.000000000000000383e-04
9.999990000000000268e-02 4.128000000000000114e+00 1.345999999999999943e+02 8.000000000000000383e-04
1.100000000000000006e-01 4.328999999999999737e+00 1.406999999999999886e+02 8.000000000000000383e-04
1.199999999999999956e-01 4.522000000000000242e+00 1.464000000000000057e+02 9.000000000000000838e-04
1.300000000000000044e-01 4.706000000000000405e+00 1.518000000000000114e+02 9.000000000000000838e-04
1.399989999999999846e-01 4.884000000000000341e+00 1.569000000000000057e+02 9.000000000000000838e-04
1.499989999999999934e-01 5.054999999999999716e+00 1.618000000000000114e+02 1.000000000000000021e-03
1.599990000000000023e-01 5.221000000000000085e+00 1.664000000000000057e+02 1.000000000000000021e-03
1.699990000000000112e-01 5.381999999999999673e+00 1.708000000000000114e+02 1.000000000000000021e-03
1.799989999999999923e-01 5.538000000000000256e+00 1.750000000000000000e+02 1.100000000000000066e-03
1.999990000000000101e-01 5.836999999999999744e+00 1.830000000000000000e+02 1.100000000000000066e-03
2.249990000000000046e-01 6.192000000000000171e+00 1.920999999999999943e+02 1.200000000000000112e-03
2.499989999999999990e-01 6.525999999999999801e+00 2.005000000000000000e+02 1.300000000000000157e-03
2.749990000000000490e-01 6.844999999999999751e+00 2.081999999999999886e+02 1.300000000000000157e-03
2.999990000000000157e-01 7.149000000000000021e+00 2.154000000000000057e+02 1.399999999999999986e-03
3.249990000000000379e-01 7.440999999999999837e+00 2.221999999999999886e+02 1.500000000000000031e-03
3.499990000000000046e-01 7.722000000000000419e+00 2.285000000000000000e+02 1.500000000000000031e-03
3.749990000000000268e-01 7.993000000000000327e+00 2.344000000000000057e+02 1.600000000000000077e-03
3.999990000000000490e-01 8.255000000000000782e+00 2.400000000000000000e+02 1.700000000000000122e-03
4.499990000000000379e-01 8.756000000000000227e+00 2.504000000000000057e+02 1.800000000000000168e-03
4.999990000000000268e-01 9.230000000000000426e+00 2.598000000000000114e+02 1.899999999999999996e-03
5.499990000000000157e-01 9.680999999999999162e+00 2.683000000000000114e+02 2.000000000000000042e-03
5.999990000000000601e-01 1.010999999999999943e+01 2.761999999999999886e+02 2.100000000000000304e-03
6.499989999999999934e-01 1.051999999999999957e+01 2.835000000000000000e+02 2.200000000000000133e-03
6.999990000000000379e-01 1.091999999999999993e+01 2.901999999999999886e+02 2.299999999999999961e-03
7.999990000000000157e-01 1.167999999999999972e+01 3.023999999999999773e+02 2.500000000000000052e-03
8.999989999999999934e-01 1.238000000000000078e+01 3.131999999999999886e+02 2.700000000000000143e-03
9.999990000000000823e-01 1.305000000000000071e+01 3.226999999999999886e+02 2.900000000000000234e-03
1.100000000000000089e+00 1.368999999999999950e+01 3.313999999999999773e+02 3.100000000000000325e-03
1.199999999999999956e+00 1.430000000000000071e+01 3.391000000000000227e+02 3.200000000000000153e-03
1.300000000000000044e+00 1.488000000000000078e+01 3.461999999999999886e+02 3.400000000000000244e-03
1.399999999999999911e+00 1.544999999999999929e+01 3.526999999999999886e+02 3.600000000000000335e-03
1.500000000000000000e+00 1.599000000000000021e+01 3.586999999999999886e+02 3.799999999999999992e-03
1.600000000000000089e+00 1.651000000000000156e+01 3.641999999999999886e+02 3.900000000000000255e-03
1.699999999999999956e+00 1.701999999999999957e+01 3.693000000000000114e+02 4.100000000000000346e-03
1.800000000000000044e+00 1.751000000000000156e+01 3.741000000000000227e+02 4.300000000000000003e-03
2.000000000000000000e+00 1.846000000000000085e+01 3.826999999999999886e+02 4.599999999999999922e-03
2.250000000000000000e+00 1.957999999999999829e+01 3.918999999999999773e+02 5.000000000000000104e-03
2.500000000000000000e+00 2.064000000000000057e+01 3.998000000000000114e+02 5.400000000000000286e-03
2.750000000000000000e+00 2.164999999999999858e+01 4.066999999999999886e+02 5.800000000000000468e-03
3.000000000000000000e+00 2.260999999999999943e+01 4.126000000000000227e+02 6.100000000000000387e-03
3.250000000000000000e+00 2.353000000000000114e+01 4.178999999999999773e+02 6.500000000000000569e-03
3.500000000000000000e+00 2.442000000000000171e+01 4.225000000000000000e+02 6.900000000000000751e-03
3.750000000000000000e+00 2.528000000000000114e+01 4.265000000000000000e+02 7.300000000000000065e-03
4.000000000000000000e+00 2.610999999999999943e+01 4.301000000000000227e+02 7.599999999999999985e-03
4.500000000000000000e+00 2.769000000000000128e+01 4.361999999999999886e+02 8.400000000000001216e-03
5.000000000000000000e+00 2.919000000000000128e+01 4.408999999999999773e+02 9.100000000000000450e-03
5.500000000000000000e+00 3.062000000000000099e+01 4.446999999999999886e+02 9.799999999999999684e-03
6.000000000000000000e+00 3.198000000000000043e+01 4.476999999999999886e+02 1.060000000000000005e-02
6.500000000000000000e+00 3.328999999999999915e+01 4.500000000000000000e+02 1.130000000000000102e-02
7.000000000000000000e+00 3.453999999999999915e+01 4.518000000000000114e+02 1.200000000000000025e-02
8.000000000000000000e+00 3.692999999999999972e+01 4.540000000000000000e+02 1.340000000000000045e-02
9.000000000000000000e+00 3.917000000000000171e+01 4.548999999999999773e+02 1.490000000000000005e-02
1.000000000000000000e+01 4.128999999999999915e+01 4.548000000000000114e+02 1.630000000000000199e-02
1.100000000000000000e+01 4.329999999999999716e+01 4.541000000000000227e+02 1.770000000000000046e-02
1.200000000000000000e+01 4.522999999999999687e+01 4.526999999999999886e+02 1.920000000000000179e-02
1.300000000000000000e+01 4.707999999999999829e+01 4.510000000000000000e+02 2.060000000000000026e-02
1.400000000000000000e+01 4.885999999999999943e+01 4.488999999999999773e+02 2.210000000000000159e-02
1.500000000000000000e+01 5.057000000000000028e+01 4.466000000000000227e+02 2.359999999999999945e-02
1.600000000000000000e+01 5.222999999999999687e+01 4.440000000000000000e+02 2.500000000000000139e-02
1.700000000000000000e+01 5.384000000000000341e+01 4.413999999999999773e+02 2.650000000000000272e-02
1.800000000000000000e+01 5.539999999999999858e+01 4.386000000000000227e+02 2.800000000000000058e-02
2.000000000000000000e+01 5.839999999999999858e+01 4.328000000000000114e+02 3.099999999999999978e-02
2.250000000000000000e+01 6.195000000000000284e+01 4.253000000000000114e+02 3.490000000000000047e-02
2.500000000000000000e+01 6.529999999999999716e+01 4.178000000000000114e+02 3.870000000000000523e-02
2.750000000000000000e+01 6.848999999999999488e+01 4.103000000000000114e+02 4.270000000000000184e-02
3.000000000000000000e+01 7.153000000000000114e+01 4.030000000000000000e+02 4.670000000000000540e-02
3.250000000000000000e+01 7.445999999999999375e+01 3.958000000000000114e+02 5.070000000000000201e-02
3.500000000000000000e+01 7.726999999999999602e+01 3.888000000000000114e+02 5.490000000000000435e-02
3.750000000000000000e+01 7.998999999999999488e+01 3.821000000000000227e+02 5.900000000000000383e-02
4.000000000000000000e+01 8.260999999999999943e+01 3.755000000000000000e+02 6.320000000000000617e-02
4.500000000000000000e+01 8.762999999999999545e+01 3.631000000000000227e+02 7.180000000000000271e-02
5.000000000000000000e+01 9.446999999999999886e+01 3.515000000000000000e+02 8.060000000000000497e-02
5.500000000000000000e+01 1.049000000000000057e+02 3.406999999999999886e+02 8.940000000000000724e-02
6.000000000000000000e+01 1.130999999999999943e+02 3.306000000000000227e+02 9.840000000000000135e-02
6.500000000000000000e+01 1.197000000000000028e+02 3.211000000000000227e+02 1.074000000000000093e-01
7.000000000000000000e+01 1.250000000000000000e+02 3.123000000000000114e+02 1.165000000000000063e-01
8.000000000000000000e+01 1.334000000000000057e+02 2.961999999999999886e+02 1.350999999999999979e-01
9.000000000000000000e+01 1.399000000000000057e+02 2.820000000000000000e+02 1.542000000000000037e-01
1.000000000000000000e+02 1.455000000000000000e+02 2.693000000000000114e+02 1.738000000000000100e-01
1.100000000000000000e+02 1.506999999999999886e+02 2.578999999999999773e+02 1.938000000000000000e-01
1.200000000000000000e+02 1.556999999999999886e+02 2.475000000000000000e+02 2.143000000000000183e-01
1.300000000000000000e+02 1.606999999999999886e+02 2.380999999999999943e+02 2.350000000000000144e-01
1.400000000000000000e+02 1.658000000000000114e+02 2.295000000000000000e+02 2.560999999999999943e-01
1.500000000000000000e+02 1.710000000000000000e+02 2.215999999999999943e+02 2.774000000000000354e-01
1.600000000000000000e+02 1.763000000000000114e+02 2.143000000000000114e+02 2.988999999999999990e-01
1.700000000000000000e+02 1.818000000000000114e+02 2.075999999999999943e+02 3.205999999999999961e-01
1.800000000000000000e+02 1.874000000000000057e+02 2.014000000000000057e+02 3.424000000000000377e-01
2.000000000000000000e+02 1.990000000000000000e+02 1.900999999999999943e+02 3.863000000000000322e-01
2.250000000000000000e+02 2.140999999999999943e+02 1.779000000000000057e+02 4.413000000000000256e-01
2.500000000000000000e+02 2.296999999999999886e+02 1.674000000000000057e+02 4.959999999999999964e-01
2.750000000000000000e+02 2.456999999999999886e+02 1.583000000000000114e+02 5.503000000000000114e-01
3.000000000000000000e+02 2.620000000000000000e+02 1.501999999999999886e+02 6.038999999999999924e-01
3.250000000000000000e+02 2.785000000000000000e+02 1.430000000000000000e+02 6.566000000000000725e-01
3.500000000000000000e+02 2.951000000000000227e+02 1.365999999999999943e+02 7.084000000000000297e-01
3.750000000000000000e+02 3.116999999999999886e+02 1.308000000000000114e+02 7.590999999999999970e-01
4.000000000000000000e+02 3.283999999999999773e+02 1.255999999999999943e+02 8.089000000000000634e-01
4.500000000000000000e+02 3.616000000000000227e+02 1.164000000000000057e+02 9.052000000000000046e-01
5.000000000000000000e+02 3.946999999999999886e+02 1.087000000000000028e+02 9.973000000000000753e-01
5.500000000000000000e+02 4.273000000000000114e+02 1.020000000000000000e+02 1.090000000000000080e+00
6.000000000000000000e+02 4.596000000000000227e+02 9.618999999999999773e+01 1.169999999999999929e+00
6.500000000000000000e+02 4.913000000000000114e+02 9.109000000000000341e+01 1.250000000000000000e+00
7.000000000000000000e+02 5.226000000000000227e+02 8.656999999999999318e+01 1.330000000000000071e+00
8.000000000000000000e+02 5.837000000000000455e+02 7.889000000000000057e+01 1.479999999999999982e+00
9.000000000000000000e+02 6.428999999999999773e+02 7.259999999999999432e+01 1.610000000000000098e+00
1.000000000000000000e+03 7.001000000000000227e+02 6.734000000000000341e+01 1.739999999999999991e+00
1.100000000000000000e+03 7.556000000000000227e+02 6.286999999999999744e+01 1.860000000000000098e+00
1.200000000000000000e+03 8.095000000000000000e+02 5.900999999999999801e+01 1.969999999999999973e+00
1.300000000000000000e+03 8.617999999999999545e+02 5.564999999999999858e+01 2.080000000000000071e+00
1.400000000000000000e+03 9.125000000000000000e+02 5.268999999999999773e+01 2.180000000000000160e+00
1.500000000000000000e+03 9.618999999999999773e+02 5.006000000000000227e+01 2.279999999999999805e+00
1.600000000000000000e+03 1.010000000000000000e+03 4.770000000000000284e+01 2.370000000000000107e+00
1.700000000000000000e+03 1.057000000000000000e+03 4.557999999999999829e+01 2.459999999999999964e+00
1.800000000000000000e+03 1.103000000000000000e+03 4.365999999999999659e+01 2.549999999999999822e+00
2.000000000000000000e+03 1.190000000000000000e+03 4.031000000000000227e+01 2.709999999999999964e+00
2.250000000000000000e+03 1.295000000000000000e+03 3.684000000000000341e+01 2.899999999999999911e+00
2.500000000000000000e+03 1.393000000000000000e+03 3.396999999999999886e+01 3.080000000000000071e+00
2.750000000000000000e+03 1.486000000000000000e+03 3.155000000000000071e+01 3.250000000000000000e+00
3.000000000000000000e+03 1.574000000000000000e+03 2.948000000000000043e+01 3.399999999999999911e+00
3.250000000000000000e+03 1.657000000000000000e+03 2.769000000000000128e+01 3.549999999999999822e+00
3.500000000000000000e+03 1.737000000000000000e+03 2.612000000000000099e+01 3.700000000000000178e+00
3.750000000000000000e+03 1.812000000000000000e+03 2.473000000000000043e+01 3.830000000000000071e+00
4.000000000000000000e+03 1.884000000000000000e+03 2.350000000000000000e+01 3.970000000000000195e+00
4.500000000000000000e+03 2.018000000000000000e+03 2.139000000000000057e+01 4.219999999999999751e+00
5.000000000000000000e+03 2.142000000000000000e+03 1.966000000000000014e+01 4.450000000000000178e+00
5.500000000000000000e+03 2.257000000000000000e+03 1.821000000000000085e+01 4.679999999999999716e+00
6.000000000000000000e+03 2.364000000000000000e+03 1.696999999999999886e+01 4.889999999999999680e+00
6.500000000000000000e+03 2.465000000000000000e+03 1.590000000000000036e+01 5.089999999999999858e+00
7.000000000000000000e+03 2.561000000000000000e+03 1.497000000000000064e+01 5.290000000000000036e+00
8.000000000000000000e+03 2.739000000000000000e+03 1.341999999999999993e+01 5.660000000000000142e+00
9.000000000000000000e+03 2.899000000000000000e+03 1.218999999999999950e+01 6.019999999999999574e+00
1.000000000000000000e+04 3.041000000000000000e+03 1.116999999999999993e+01 6.349999999999999645e+00
1.100000000000000000e+04 3.165000000000000000e+03 1.032000000000000028e+01 6.669999999999999929e+00
1.200000000000000000e+04 3.270000000000000000e+03 9.602999999999999758e+00 6.980000000000000426e+00
1.300000000000000000e+04 3.357000000000000000e+03 8.983000000000000540e+00 7.280000000000000249e+00
1.400000000000000000e+04 3.425000000000000000e+03 8.444000000000000838e+00 7.570000000000000284e+00
1.500000000000000000e+04 3.478000000000000000e+03 7.969000000000000306e+00 7.860000000000000320e+00
1.600000000000000000e+04 3.518000000000000000e+03 7.549000000000000377e+00 8.150000000000000355e+00
1.700000000000000000e+04 3.545000000000000000e+03 7.174000000000000377e+00 8.429999999999999716e+00
1.800000000000000000e+04 3.563000000000000000e+03 6.836999999999999744e+00 8.710000000000000853e+00
2.000000000000000000e+04 3.576000000000000000e+03 6.254999999999999893e+00 9.269999999999999574e+00
2.250000000000000000e+04 3.563000000000000000e+03 5.660999999999999588e+00 9.970000000000000639e+00
2.500000000000000000e+04 3.530000000000000000e+03 5.176000000000000156e+00 1.066999999999999993e+01
2.750000000000000000e+04 3.487000000000000000e+03 4.772000000000000242e+00 1.138000000000000078e+01
3.000000000000000000e+04 3.437000000000000000e+03 4.429999999999999716e+00 1.209999999999999964e+01
3.250000000000000000e+04 3.385000000000000000e+03 4.136999999999999567e+00 1.283000000000000007e+01
3.500000000000000000e+04 3.332000000000000000e+03 3.882000000000000117e+00 1.357000000000000028e+01
3.750000000000000000e+04 3.278000000000000000e+03 3.658999999999999808e+00 1.433000000000000007e+01
4.000000000000000000e+04 3.225000000000000000e+03 3.460999999999999854e+00 1.509999999999999964e+01
